# barionic density, mass
1.034034034034034E-02	9.175418922119143E+02
1.068068068068068E-02	9.168094708251954E+02
1.102102102102102E-02	9.160770494384767E+02
1.136136136136136E-02	9.153446280517580E+02
1.170170170170170E-02	9.146122066650391E+02
1.204204204204204E-02	9.138797852783205E+02
1.238238238238239E-02	9.131473638916016E+02
1.272272272272273E-02	9.124149425048829E+02
1.306306306306307E-02	9.116825211181642E+02
1.340340340340341E-02	9.109500997314453E+02
1.374374374374375E-02	9.102176783447267E+02
1.408408408408409E-02	9.094852569580080E+02
1.442442442442443E-02	9.087528355712891E+02
1.476476476476477E-02	9.080204141845704E+02
1.510510510510511E-02	9.076542034912111E+02
1.544544544544545E-02	9.069217821044922E+02
1.578578578578579E-02	9.061893607177735E+02
1.612612612612613E-02	9.054569393310549E+02
1.646646646646647E-02	9.047245179443360E+02
1.680680680680681E-02	9.039920965576173E+02
1.714714714714715E-02	9.032596751708986E+02
1.748748748748749E-02	9.025272537841797E+02
1.782782782782784E-02	9.017948323974611E+02
1.816816816816818E-02	9.010624110107422E+02
1.850850850850852E-02	9.003299896240235E+02
1.884884884884886E-02	8.995975682373048E+02
1.918918918918920E-02	8.992313575439453E+02
1.952952952952954E-02	8.984989361572266E+02
1.986986986986988E-02	8.977665147705079E+02
2.021021021021022E-02	8.970340933837890E+02
2.055055055055056E-02	8.963016719970703E+02
2.089089089089090E-02	8.955692506103517E+02
2.123123123123124E-02	8.948368292236328E+02
2.157157157157158E-02	8.941044078369141E+02
2.191191191191192E-02	8.933719864501954E+02
2.225225225225226E-02	8.926395650634765E+02
2.259259259259261E-02	8.919071436767579E+02
2.293293293293295E-02	8.915409329833985E+02
2.327327327327329E-02	8.908085115966799E+02
2.361361361361363E-02	8.900760902099610E+02
2.395395395395397E-02	8.893436688232423E+02
2.429429429429431E-02	8.886112474365236E+02
2.463463463463465E-02	8.878788260498047E+02
2.497497497497499E-02	8.871464046630861E+02
2.531531531531533E-02	8.864139832763674E+02
2.565565565565567E-02	8.856815618896485E+02
2.599599599599601E-02	8.849491405029298E+02
2.633633633633635E-02	8.842167191162112E+02
2.667667667667669E-02	8.838505084228516E+02
2.701701701701703E-02	8.831180870361329E+02
2.735735735735738E-02	8.823856656494142E+02
2.769769769769772E-02	8.816532442626954E+02
2.803803803803806E-02	8.809208228759767E+02
2.837837837837840E-02	8.801884014892580E+02
2.871871871871874E-02	8.794559801025391E+02
2.905905905905908E-02	8.787235587158204E+02
2.939939939939942E-02	8.779911373291015E+02
2.973973973973976E-02	8.772587159423829E+02
3.008008008008010E-02	8.768925052490235E+02
3.042042042042044E-02	8.761600838623049E+02
3.076076076076078E-02	8.754276624755860E+02
3.110110110110112E-02	8.746952410888673E+02
3.144144144144146E-02	8.739628197021486E+02
3.178178178178180E-02	8.732303983154297E+02
3.212212212212214E-02	8.724979769287111E+02
3.246246246246248E-02	8.717655555419922E+02
3.280280280280282E-02	8.710331341552735E+02
3.314314314314316E-02	8.706669234619142E+02
3.348348348348350E-02	8.699345020751953E+02
3.382382382382385E-02	8.692020806884766E+02
3.416416416416419E-02	8.684696593017579E+02
3.450450450450453E-02	8.677372379150390E+02
3.484484484484487E-02	8.670048165283204E+02
3.518518518518521E-02	8.662723951416015E+02
3.552552552552555E-02	8.655399737548828E+02
3.586586586586589E-02	8.648075523681641E+02
3.620620620620623E-02	8.644413416748048E+02
3.654654654654657E-02	8.637089202880859E+02
3.688688688688691E-02	8.629764989013672E+02
3.722722722722725E-02	8.622440775146486E+02
3.756756756756759E-02	8.615116561279297E+02
3.790790790790793E-02	8.607792347412110E+02
3.824824824824827E-02	8.600468133544923E+02
3.858858858858862E-02	8.593143919677734E+02
3.892892892892896E-02	8.589481812744141E+02
3.926926926926930E-02	8.582157598876954E+02
3.960960960960964E-02	8.574833385009765E+02
3.994994994994998E-02	8.567509171142578E+02
4.029029029029032E-02	8.560184957275392E+02
4.063063063063066E-02	8.552860743408203E+02
4.097097097097100E-02	8.545536529541016E+02
4.131131131131134E-02	8.538212315673829E+02
4.165165165165168E-02	8.530888101806640E+02
4.199199199199202E-02	8.527225994873047E+02
4.233233233233236E-02	8.519901781005860E+02
4.267267267267270E-02	8.512577567138674E+02
4.301301301301304E-02	8.505253353271485E+02
4.335335335335339E-02	8.497929139404298E+02
4.369369369369373E-02	8.490604925537111E+02
4.403403403403407E-02	8.483280711669922E+02
4.437437437437441E-02	8.475956497802736E+02
4.471471471471475E-02	8.472294390869142E+02
4.505505505505509E-02	8.464970177001953E+02
4.539539539539543E-02	8.457645963134767E+02
4.573573573573577E-02	8.450321749267580E+02
4.607607607607611E-02	8.442997535400391E+02
4.641641641641645E-02	8.435673321533204E+02
4.675675675675679E-02	8.428349107666015E+02
4.709709709709713E-02	8.421024893798829E+02
4.743743743743747E-02	8.417362786865235E+02
4.777777777777781E-02	8.410038572998048E+02
4.811811811811816E-02	8.402714359130860E+02
4.845845845845850E-02	8.395390145263673E+02
4.879879879879884E-02	8.388065931396486E+02
4.913913913913918E-02	8.380741717529297E+02
4.947947947947952E-02	8.373417503662110E+02
4.981981981981986E-02	8.369755396728515E+02
5.016016016016020E-02	8.362431182861328E+02
5.050050050050054E-02	8.355106968994141E+02
5.084084084084088E-02	8.347782755126952E+02
5.118118118118122E-02	8.340458541259766E+02
5.152152152152156E-02	8.333134327392579E+02
5.186186186186190E-02	8.325810113525390E+02
5.220220220220224E-02	8.318485899658203E+02
5.254254254254258E-02	8.314823792724610E+02
5.288288288288293E-02	8.307499578857421E+02
5.322322322322327E-02	8.300175364990234E+02
5.356356356356361E-02	8.292851151123048E+02
5.390390390390395E-02	8.285526937255859E+02
5.424424424424429E-02	8.278202723388672E+02
5.458458458458463E-02	8.270878509521485E+02
5.492492492492497E-02	8.267216402587890E+02
5.526526526526531E-02	8.259892188720703E+02
5.560560560560565E-02	8.252567974853516E+02
5.594594594594599E-02	8.245243760986327E+02
5.628628628628633E-02	8.237919547119141E+02
5.662662662662667E-02	8.230595333251954E+02
5.696696696696701E-02	8.223271119384765E+02
5.730730730730735E-02	8.219609012451172E+02
5.764764764764770E-02	8.212284798583985E+02
5.798798798798804E-02	8.204960584716798E+02
5.832832832832838E-02	8.197636370849609E+02
5.866866866866872E-02	8.190312156982422E+02
5.900900900900906E-02	8.182987943115236E+02
5.934934934934940E-02	8.175663729248047E+02
5.968968968968974E-02	8.172001622314453E+02
6.003003003003008E-02	8.164677408447267E+02
6.037037037037042E-02	8.157353194580078E+02
6.071071071071076E-02	8.150028980712891E+02
6.105105105105110E-02	8.142704766845704E+02
6.139139139139144E-02	8.135380552978515E+02
6.173173173173178E-02	8.128056339111329E+02
6.207207207207213E-02	8.124394232177735E+02
6.241241241241247E-02	8.117070018310549E+02
6.275275275275280E-02	8.109745804443360E+02
6.309309309309313E-02	8.102421590576173E+02
6.343343343343347E-02	8.095097376708986E+02
6.377377377377380E-02	8.087773162841797E+02
6.411411411411413E-02	8.080448948974611E+02
6.445445445445447E-02	8.076786842041015E+02
6.479479479479480E-02	8.069462628173828E+02
6.513513513513514E-02	8.062138414306642E+02
6.547547547547547E-02	8.054814200439453E+02
6.581581581581580E-02	8.047489986572266E+02
6.615615615615614E-02	8.040165772705079E+02
6.649649649649647E-02	8.032841558837890E+02
6.683683683683680E-02	8.029179451904297E+02
6.717717717717714E-02	8.021855238037110E+02
6.751751751751747E-02	8.014531024169921E+02
6.785785785785781E-02	8.007206810302735E+02
6.819819819819814E-02	7.999882596435548E+02
6.853853853853847E-02	7.992558382568359E+02
6.887887887887881E-02	7.985234168701172E+02
6.921921921921914E-02	7.981572061767579E+02
6.955955955955948E-02	7.974247847900390E+02
6.989989989989981E-02	7.966923634033203E+02
7.024024024024014E-02	7.959599420166014E+02
7.058058058058048E-02	7.952275206298827E+02
7.092092092092081E-02	7.944950992431641E+02
7.126126126126114E-02	7.941288885498047E+02
7.160160160160148E-02	7.933964671630858E+02
7.194194194194181E-02	7.926640457763672E+02
7.228228228228215E-02	7.919316243896485E+02
7.262262262262248E-02	7.911992030029296E+02
7.296296296296281E-02	7.904667816162109E+02
7.330330330330315E-02	7.897343602294923E+02
7.364364364364348E-02	7.893681495361327E+02
7.398398398398381E-02	7.886357281494140E+02
7.432432432432415E-02	7.879033067626954E+02
7.466466466466448E-02	7.871708853759765E+02
7.500500500500482E-02	7.864384639892578E+02
7.534534534534515E-02	7.857060426025391E+02
7.568568568568548E-02	7.853398319091798E+02
7.602602602602582E-02	7.846074105224609E+02
7.636636636636615E-02	7.838749891357422E+02
7.670670670670648E-02	7.831425677490236E+02
7.704704704704682E-02	7.824101463623047E+02
7.738738738738715E-02	7.816777249755860E+02
7.772772772772749E-02	7.809453035888673E+02
7.806806806806782E-02	7.805790928955078E+02
7.840840840840815E-02	7.798466715087891E+02
7.874874874874849E-02	7.791142501220704E+02
7.908908908908882E-02	7.783818287353515E+02
7.942942942942915E-02	7.776494073486328E+02
7.976976976976949E-02	7.769169859619142E+02
8.011011011010982E-02	7.765507752685548E+02
8.045045045045016E-02	7.758183538818359E+02
8.079079079079049E-02	7.750859324951173E+02
8.113113113113082E-02	7.743535111083986E+02
8.147147147147116E-02	7.736210897216797E+02
8.181181181181149E-02	7.728886683349610E+02
8.215215215215182E-02	7.725224576416015E+02
8.249249249249216E-02	7.717900362548828E+02
8.283283283283249E-02	7.710576148681641E+02
8.317317317317283E-02	7.703251934814452E+02
8.351351351351316E-02	7.695927720947266E+02
8.385385385385349E-02	7.688603507080079E+02
8.419419419419383E-02	7.681279293212890E+02
8.453453453453416E-02	7.677617186279297E+02
8.487487487487450E-02	7.670292972412110E+02
8.521521521521483E-02	7.662968758544921E+02
8.555555555555516E-02	7.655644544677734E+02
8.589589589589550E-02	7.648320330810548E+02
8.623623623623583E-02	7.640996116943359E+02
8.657657657657616E-02	7.637334010009765E+02
8.691691691691650E-02	7.630009796142579E+02
8.725725725725683E-02	7.622685582275390E+02
8.759759759759717E-02	7.615361368408203E+02
8.793793793793750E-02	7.608037154541014E+02
8.827827827827783E-02	7.600712940673827E+02
8.861861861861817E-02	7.597050833740234E+02
8.895895895895850E-02	7.589726619873047E+02
8.929929929929883E-02	7.582402406005858E+02
8.963963963963917E-02	7.575078192138672E+02
8.997997997997950E-02	7.567753978271485E+02
9.032032032031984E-02	7.560429764404296E+02
9.066066066066017E-02	7.556767657470702E+02
9.100100100100050E-02	7.549443443603516E+02
9.134134134134084E-02	7.542119229736327E+02
9.168168168168117E-02	7.534795015869140E+02
9.202202202202150E-02	7.527470802001953E+02
9.236236236236184E-02	7.520146588134764E+02
9.270270270270217E-02	7.516484481201171E+02
9.304304304304251E-02	7.509160267333984E+02
9.338338338338284E-02	7.501836053466798E+02
9.372372372372317E-02	7.494511839599609E+02
9.406406406406351E-02	7.487187625732422E+02
9.440440440440384E-02	7.479863411865235E+02
9.474474474474417E-02	7.476201304931640E+02
9.508508508508451E-02	7.468877091064453E+02
9.542542542542484E-02	7.461552877197266E+02
9.576576576576518E-02	7.454228663330077E+02
9.610610610610551E-02	7.446904449462891E+02
9.644644644644584E-02	7.439580235595704E+02
9.678678678678618E-02	7.435918128662111E+02
9.712712712712651E-02	7.428593914794922E+02
9.746746746746685E-02	7.421269700927735E+02
9.780780780780718E-02	7.413945487060548E+02
9.814814814814751E-02	7.406621273193359E+02
9.848848848848785E-02	7.399297059326173E+02
9.882882882882818E-02	7.391972845458986E+02
9.916916916916851E-02	7.388310738525390E+02
9.950950950950885E-02	7.380986524658204E+02
9.984984984984918E-02	7.373662310791015E+02
1.001901901901895E-01	7.366338096923828E+02
1.005305305305298E-01	7.359013883056641E+02
1.008708708708702E-01	7.351689669189452E+02
1.012112112112105E-01	7.348027562255859E+02
1.015515515515509E-01	7.340703348388672E+02
1.018918918918912E-01	7.333379134521485E+02
1.022322322322315E-01	7.326054920654296E+02
1.025725725725719E-01	7.318730706787110E+02
1.029129129129122E-01	7.311406492919921E+02
1.032532532532525E-01	7.307744385986327E+02
1.035935935935929E-01	7.300420172119141E+02
1.039339339339332E-01	7.293095958251952E+02
1.042742742742735E-01	7.285771744384765E+02
1.046146146146139E-01	7.278447530517578E+02
1.049549549549542E-01	7.271123316650389E+02
1.052952952952945E-01	7.267461209716796E+02
1.056356356356349E-01	7.260136995849609E+02
1.059759759759752E-01	7.252812781982420E+02
1.063163163163155E-01	7.245488568115234E+02
1.066566566566559E-01	7.238164354248047E+02
1.069969969969962E-01	7.230840140380858E+02
1.073373373373365E-01	7.227178033447265E+02
1.076776776776769E-01	7.219853819580078E+02
1.080180180180172E-01	7.212529605712889E+02
1.083583583583575E-01	7.205205391845702E+02
1.086986986986979E-01	7.197881177978516E+02
1.090390390390382E-01	7.190556964111327E+02
1.093793793793785E-01	7.186894857177733E+02
1.097197197197189E-01	7.179570643310547E+02
1.100600600600592E-01	7.172246429443360E+02
1.104004004003995E-01	7.164922215576171E+02
1.107407407407399E-01	7.157598001708984E+02
1.110810810810802E-01	7.150273787841797E+02
1.114214214214205E-01	7.146611680908202E+02
1.117617617617609E-01	7.139287467041015E+02
1.121021021021012E-01	7.131963253173828E+02
1.124424424424415E-01	7.124639039306639E+02
1.127827827827819E-01	7.117314825439453E+02
1.131231231231222E-01	7.109990611572266E+02
1.134634634634625E-01	7.106328504638673E+02
1.138038038038029E-01	7.099004290771484E+02
1.141441441441432E-01	7.091680076904297E+02
1.144844844844835E-01	7.084355863037110E+02
1.148248248248239E-01	7.077031649169921E+02
1.151651651651642E-01	7.069707435302735E+02
1.155055055055045E-01	7.066045328369141E+02
1.158458458458449E-01	7.058721114501952E+02
1.161861861861852E-01	7.051396900634766E+02
1.165265265265255E-01	7.044072686767579E+02
1.168668668668659E-01	7.036748472900390E+02
1.172072072072062E-01	7.029424259033203E+02
1.175475475475465E-01	7.025762152099610E+02
1.178878878878869E-01	7.018437938232421E+02
1.182282282282272E-01	7.011113724365234E+02
1.185685685685675E-01	7.003789510498048E+02
1.189089089089079E-01	6.996465296630859E+02
1.192492492492482E-01	6.989141082763672E+02
1.195895895895885E-01	6.981816868896485E+02
1.199299299299289E-01	6.978154761962890E+02
1.202702702702692E-01	6.970830548095703E+02
1.206106106106095E-01	6.963506334228516E+02
1.209509509509499E-01	6.956182120361327E+02
1.212912912912902E-01	6.948857906494140E+02
1.216316316316305E-01	6.941533692626954E+02
1.219719719719709E-01	6.937871585693360E+02
1.223123123123112E-01	6.930547371826171E+02
1.226526526526515E-01	6.923223157958985E+02
1.229929929929919E-01	6.915898944091798E+02
1.233333333333322E-01	6.908574730224609E+02
1.236736736736725E-01	6.901250516357422E+02
1.240140140140129E-01	6.897588409423829E+02
1.243543543543532E-01	6.890264195556640E+02
1.246946946946935E-01	6.882939981689453E+02
1.250350350350339E-01	6.875615767822267E+02
1.253753753753742E-01	6.868291553955078E+02
1.257157157157145E-01	6.860967340087891E+02
1.260560560560549E-01	6.857305233154298E+02
1.263963963963952E-01	6.849981019287111E+02
1.267367367367356E-01	6.842656805419922E+02
1.270770770770759E-01	6.835332591552735E+02
1.274174174174162E-01	6.828008377685549E+02
1.277577577577566E-01	6.820684163818360E+02
1.280980980980969E-01	6.813359949951173E+02
1.284384384384372E-01	6.809697843017580E+02
1.287787787787776E-01	6.802373629150391E+02
1.291191191191179E-01	6.795049415283204E+02
1.294594594594582E-01	6.787725201416015E+02
1.297997997997986E-01	6.780400987548828E+02
1.301401401401389E-01	6.773076773681641E+02
1.304804804804792E-01	6.769414666748048E+02
1.308208208208196E-01	6.762090452880859E+02
1.311611611611599E-01	6.754766239013672E+02
1.315015015015002E-01	6.747442025146486E+02
1.318418418418406E-01	6.740117811279297E+02
1.321821821821809E-01	6.732793597412110E+02
1.325225225225212E-01	6.725469383544921E+02
1.328628628628616E-01	6.721807276611328E+02
1.332032032032019E-01	6.714483062744141E+02
1.335435435435422E-01	6.707158848876952E+02
1.338838838838826E-01	6.699834635009765E+02
1.342242242242229E-01	6.692510421142579E+02
1.345645645645632E-01	6.685186207275390E+02
1.349049049049036E-01	6.681524100341796E+02
1.352452452452439E-01	6.674199886474610E+02
1.355855855855842E-01	6.666875672607421E+02
1.359259259259246E-01	6.659551458740234E+02
1.362662662662649E-01	6.652227244873047E+02
1.366066066066052E-01	6.644903031005858E+02
1.369469469469456E-01	6.637578817138672E+02
1.372872872872859E-01	6.633916710205078E+02
1.376276276276262E-01	6.626592496337889E+02
1.379679679679666E-01	6.619268282470703E+02
1.383083083083069E-01	6.611944068603516E+02
1.386486486486472E-01	6.604619854736327E+02
1.389889889889876E-01	6.597295640869140E+02
1.393293293293279E-01	6.593633533935547E+02
1.396696696696682E-01	6.586309320068360E+02
1.400100100100086E-01	6.578985106201171E+02
1.403503503503489E-01	6.571660892333985E+02
1.406906906906892E-01	6.564336678466798E+02
1.410310310310296E-01	6.557012464599609E+02
1.413713713713699E-01	6.549688250732422E+02
1.417117117117102E-01	6.546026143798829E+02
1.420520520520506E-01	6.538701929931640E+02
1.423923923923909E-01	6.531377716064453E+02
1.427327327327312E-01	6.524053502197266E+02
1.430730730730716E-01	6.516729288330077E+02
1.434134134134119E-01	6.509405074462891E+02
1.437537537537522E-01	6.502080860595704E+02
1.440940940940926E-01	6.498418753662111E+02
1.444344344344329E-01	6.491094539794922E+02
1.447747747747732E-01	6.483770325927735E+02
1.451151151151136E-01	6.476446112060548E+02
1.454554554554539E-01	6.469121898193359E+02
1.457957957957942E-01	6.461797684326173E+02
1.461361361361346E-01	6.454473470458986E+02
1.464764764764749E-01	6.450811363525390E+02
1.468168168168152E-01	6.443487149658204E+02
1.471571571571556E-01	6.436162935791015E+02
1.474974974974959E-01	6.428838721923828E+02
1.478378378378362E-01	6.421514508056641E+02
1.481781781781766E-01	6.414190294189452E+02
1.485185185185169E-01	6.406866080322266E+02
1.488588588588572E-01	6.403203973388672E+02
1.491991991991976E-01	6.395879759521486E+02
1.495395395395379E-01	6.388555545654297E+02
1.498798798798782E-01	6.381231331787110E+02
1.502202202202186E-01	6.373907117919921E+02
1.505605605605589E-01	6.366582904052734E+02
1.509009009008992E-01	6.359258690185547E+02
1.512412412412396E-01	6.355596583251952E+02
1.515815815815799E-01	6.348272369384765E+02
1.519219219219202E-01	6.340948155517578E+02
1.522622622622606E-01	6.333623941650389E+02
1.526026026026009E-01	6.326299727783203E+02
1.529429429429413E-01	6.319891040649413E+02
1.532832832832816E-01	6.312566826782225E+02
1.536236236236219E-01	6.305242612915039E+02
1.539639639639623E-01	6.299749452514648E+02
1.543043043043026E-01	6.292425238647460E+02
1.546446446446429E-01	6.285101024780273E+02
1.549849849849833E-01	6.277776810913085E+02
1.553253253253236E-01	6.272283650512694E+02
1.556656656656639E-01	6.264959436645507E+02
1.560060060060043E-01	6.257635222778321E+02
1.563463463463446E-01	6.250311008911132E+02
1.566866866866849E-01	6.244817848510742E+02
1.570270270270253E-01	6.237493634643555E+02
1.573673673673656E-01	6.230169420776366E+02
1.577077077077059E-01	6.224676260375976E+02
1.580480480480463E-01	6.217352046508789E+02
1.583883883883866E-01	6.210027832641601E+02
1.587287287287269E-01	6.202703618774414E+02
1.590690690690673E-01	6.197210458374024E+02
1.594094094094076E-01	6.189886244506836E+02
1.597497497497479E-01	6.182562030639648E+02
1.600900900900883E-01	6.175237816772461E+02
1.604304304304286E-01	6.167913602905273E+02
1.607707707707689E-01	6.162420442504882E+02
1.611111111111093E-01	6.155096228637696E+02
1.614514514514496E-01	6.147772014770509E+02
1.617917917917899E-01	6.140447800903320E+02
1.621321321321303E-01	6.134954640502930E+02
1.624724724724706E-01	6.127630426635743E+02
1.628128128128109E-01	6.120306212768554E+02
1.631531531531513E-01	6.112981998901367E+02
1.634934934934916E-01	6.107488838500977E+02
1.638338338338319E-01	6.100164624633790E+02
1.641741741741723E-01	6.092840410766602E+02
