# barionic density, scalar density
1.034034034034034E-02	-4.787245978396968E-01
1.068068068068068E-02	-4.783496524266534E-01
1.102102102102102E-02	-4.779746836103000E-01
1.136136136136136E-02	-4.775996909041060E-01
1.170170170170170E-02	-4.772246738394498E-01
1.204204204204204E-02	-4.768496319643424E-01
1.238238238238239E-02	-4.764745648422854E-01
1.272272272272273E-02	-4.760994720512164E-01
1.306306306306307E-02	-4.757243531825483E-01
1.340340340340341E-02	-4.753492078403215E-01
1.374374374374375E-02	-4.749740356404017E-01
1.408408408408409E-02	-4.745988362097539E-01
1.442442442442443E-02	-4.742236091857899E-01
1.476476476476477E-02	-4.738483542157326E-01
1.510510510510511E-02	-4.734920030496114E-01
1.544544544544545E-02	-4.731167295208551E-01
1.578578578578579E-02	-4.727414271092632E-01
1.612612612612613E-02	-4.723660954965261E-01
1.646646646646647E-02	-4.719907343717329E-01
1.680680680680681E-02	-4.716153434309875E-01
1.714714714714715E-02	-4.712399223770560E-01
1.748748748748749E-02	-4.708644709190398E-01
1.782782782782784E-02	-4.704889887720489E-01
1.816816816816818E-02	-4.701134756569306E-01
1.850850850850852E-02	-4.697379312999795E-01
1.884884884884886E-02	-4.693623554327020E-01
1.918918918918920E-02	-4.690061237487442E-01
1.952952952952954E-02	-4.686305232138915E-01
1.986986986986988E-02	-4.682548904640432E-01
2.021021021021022E-02	-4.678792252495762E-01
2.055055055055056E-02	-4.675035273250132E-01
2.089089089089090E-02	-4.671277964488360E-01
2.123123123123124E-02	-4.667520323833271E-01
2.157157157157158E-02	-4.663762348944114E-01
2.191191191191192E-02	-4.660004037514984E-01
2.225225225225226E-02	-4.656245387273619E-01
2.259259259259261E-02	-4.652486395979824E-01
2.293293293293295E-02	-4.648924950840440E-01
2.327327327327329E-02	-4.645165669746689E-01
2.361361361361363E-02	-4.641406041811934E-01
2.395395395395397E-02	-4.637646064915721E-01
2.429429429429431E-02	-4.633885736963876E-01
2.463463463463465E-02	-4.630125055887817E-01
2.497497497497499E-02	-4.626364019643414E-01
2.531531531531533E-02	-4.622602626210197E-01
2.565565565565567E-02	-4.618840873590476E-01
2.599599599599601E-02	-4.615078759808582E-01
2.633633633633635E-02	-4.611316282910004E-01
2.667667667667669E-02	-4.607755538575211E-01
2.701701701701703E-02	-4.603992736401706E-01
2.735735735735738E-02	-4.600229566149029E-01
2.769769769769772E-02	-4.596466025943278E-01
2.803803803803806E-02	-4.592702113928279E-01
2.837837837837840E-02	-4.588937828265072E-01
2.871871871871874E-02	-4.585173167131432E-01
2.905905905905908E-02	-4.581408128721133E-01
2.939939939939942E-02	-4.577642711243538E-01
2.973973973973976E-02	-4.573876912923164E-01
3.008008008008010E-02	-4.570316705394593E-01
3.042042042042044E-02	-4.566550554196706E-01
3.076076076076078E-02	-4.562784017721949E-01
3.110110110110112E-02	-4.559017094253076E-01
3.144144144144146E-02	-4.555249782085829E-01
3.178178178178180E-02	-4.551482079528198E-01
3.212212212212214E-02	-4.547713984900392E-01
3.246246246246248E-02	-4.543945496534219E-01
3.280280280280282E-02	-4.540176612772827E-01
3.314314314314316E-02	-4.536616829126056E-01
3.348348348348350E-02	-4.532847570471391E-01
3.382382382382385E-02	-4.529077912344868E-01
3.416416416416419E-02	-4.525307853134412E-01
3.450450450450453E-02	-4.521537391237492E-01
3.484484484484487E-02	-4.517766525061164E-01
3.518518518518521E-02	-4.513995253021587E-01
3.552552552552555E-02	-4.510223573543852E-01
3.586586586586589E-02	-4.506451485061622E-01
3.620620620620623E-02	-4.502892063253193E-01
3.654654654654657E-02	-4.499119579855565E-01
3.688688688688691E-02	-4.495346683655466E-01
3.722722722722725E-02	-4.491573373121420E-01
3.756756756756759E-02	-4.487799646729370E-01
3.790790790790793E-02	-4.484025502962460E-01
3.824824824824827E-02	-4.480250940311049E-01
3.858858858858862E-02	-4.476475957272170E-01
3.892892892892896E-02	-4.472916833542906E-01
3.926926926926930E-02	-4.469141439255012E-01
3.960960960960964E-02	-4.465365620981010E-01
3.994994994994998E-02	-4.461589377246092E-01
4.029029029029032E-02	-4.457812706581483E-01
4.063063063063066E-02	-4.454035607524098E-01
4.097097097097100E-02	-4.450258078616536E-01
4.131131131131134E-02	-4.446480118406744E-01
4.165165165165168E-02	-4.442701725448084E-01
4.199199199199202E-02	-4.439142869602389E-01
4.233233233233236E-02	-4.435364048115775E-01
4.267267267267270E-02	-4.431584790463302E-01
4.301301301301304E-02	-4.427805095220614E-01
4.335335335335339E-02	-4.424024960968039E-01
4.369369369369373E-02	-4.420244386290311E-01
4.403403403403407E-02	-4.416463369776580E-01
4.437437437437441E-02	-4.412681910020163E-01
4.471471471471475E-02	-4.409123279960857E-01
4.505505505505509E-02	-4.405341377356756E-01
4.539539539539543E-02	-4.401559028226221E-01
4.573573573573577E-02	-4.397776231180915E-01
4.607607607607611E-02	-4.393992984836305E-01
4.641641641641645E-02	-4.390209287811275E-01
4.675675675675679E-02	-4.386425138728341E-01
4.709709709709713E-02	-4.382640536213244E-01
4.743743743743747E-02	-4.379082104248750E-01
4.777777777777781E-02	-4.375297045293949E-01
4.811811811811816E-02	-4.371511529734933E-01
4.845845845845850E-02	-4.367725556212571E-01
4.879879879879884E-02	-4.363939123370827E-01
4.913913913913918E-02	-4.360152229856327E-01
4.947947947947952E-02	-4.356364874318553E-01
4.981981981981986E-02	-4.352806620359056E-01
5.016016016016020E-02	-4.349018797154093E-01
5.050050050050054E-02	-4.345230508837868E-01
5.084084084084088E-02	-4.341441754072664E-01
5.118118118118122E-02	-4.337652531523173E-01
5.152152152152156E-02	-4.333862839856324E-01
5.186186186186190E-02	-4.330072677741362E-01
5.220220220220224E-02	-4.326282043849587E-01
5.254254254254258E-02	-4.322723944900302E-01
5.288288288288293E-02	-4.318932830853957E-01
5.322322322322327E-02	-4.315141242024566E-01
5.356356356356361E-02	-4.311349177094127E-01
5.390390390390395E-02	-4.307556634746498E-01
5.424424424424429E-02	-4.303763613667324E-01
5.458458458458463E-02	-4.299970112544002E-01
5.492492492492497E-02	-4.296412158644961E-01
5.526526526526531E-02	-4.292618166992629E-01
5.560560560560565E-02	-4.288823692352297E-01
5.594594594594599E-02	-4.285028733420411E-01
5.628628628628633E-02	-4.281233288894848E-01
5.662662662662667E-02	-4.277437357474899E-01
5.696696696696701E-02	-4.273640937861244E-01
5.730730730730735E-02	-4.270083116390918E-01
5.764764764764770E-02	-4.266286196207727E-01
5.798798798798804E-02	-4.262488784941749E-01
5.832832832832838E-02	-4.258690881301347E-01
5.866866866866872E-02	-4.254892483996021E-01
5.900900900900906E-02	-4.251093591736352E-01
5.934934934934940E-02	-4.247294203233973E-01
5.968968968968974E-02	-4.243736503080275E-01
6.003003003003008E-02	-4.239936604268755E-01
6.037037037037042E-02	-4.236136206373706E-01
6.071071071071076E-02	-4.232335308113269E-01
6.105105105105110E-02	-4.228533908206485E-01
6.139139139139144E-02	-4.224732005373177E-01
6.173173173173178E-02	-4.220929598334051E-01
6.207207207207213E-02	-4.217372009788941E-01
6.241241241241247E-02	-4.213569082974152E-01
6.275275275275280E-02	-4.209765649155269E-01
6.309309309309313E-02	-4.205961707058505E-01
6.343343343343347E-02	-4.202157255410661E-01
6.377377377377380E-02	-4.198352292939133E-01
6.411411411411413E-02	-4.194546818371867E-01
6.445445445445447E-02	-4.190989333042836E-01
6.479479479479480E-02	-4.187183329482774E-01
6.513513513513514E-02	-4.183376811066658E-01
6.547547547547547E-02	-4.179569776527131E-01
6.581581581581580E-02	-4.175762224597276E-01
6.615615615615614E-02	-4.171954154010543E-01
6.649649649649647E-02	-4.168145563500679E-01
6.683683683683680E-02	-4.164588174235646E-01
6.717717717717714E-02	-4.160779045745214E-01
6.751751751751747E-02	-4.156969394605257E-01
6.785785785785781E-02	-4.153159219553562E-01
6.819819819819814E-02	-4.149348519328148E-01
6.853853853853847E-02	-4.145537292667259E-01
6.887887887887881E-02	-4.141725538309265E-01
6.921921921921914E-02	-4.138168239133518E-01
6.955955955955948E-02	-4.134355938019484E-01
6.989989989989981E-02	-4.130543106512394E-01
7.024024024024014E-02	-4.126729743354025E-01
7.058058058058048E-02	-4.122915847286258E-01
7.092092092092081E-02	-4.119101417050982E-01
7.126126126126114E-02	-4.115544221609095E-01
7.160160160160148E-02	-4.111729237453521E-01
7.194194194194181E-02	-4.107913716459167E-01
7.228228228228215E-02	-4.104097657370888E-01
7.262262262262248E-02	-4.100281058933447E-01
7.296296296296281E-02	-4.096463919891644E-01
7.330330330330315E-02	-4.092646238990090E-01
7.364364364364348E-02	-4.089089125742182E-01
7.398398398398381E-02	-4.085270882505969E-01
7.432432432432415E-02	-4.081452094764227E-01
7.466466466466448E-02	-4.077632761264076E-01
7.500500500500482E-02	-4.073812880752511E-01
7.534534534534515E-02	-4.069992451976400E-01
7.568568568568548E-02	-4.066435437734751E-01
7.602602602602582E-02	-4.062614439758253E-01
7.636636636636615E-02	-4.058792890892389E-01
7.670670670670648E-02	-4.054970789886114E-01
7.704704704704682E-02	-4.051148135488196E-01
7.738738738738715E-02	-4.047324926447120E-01
7.772772772772749E-02	-4.043501161511122E-01
7.806806806806782E-02	-4.039944225200773E-01
7.840840840840815E-02	-4.036119882975392E-01
7.874874874874849E-02	-4.032294982252163E-01
7.908908908908882E-02	-4.028469521781091E-01
7.942942942942915E-02	-4.024643500311935E-01
7.976976976976949E-02	-4.020816916594114E-01
8.011011011010982E-02	-4.017260077600573E-01
8.045045045045016E-02	-4.013432910000622E-01
8.079079079079049E-02	-4.009605177567561E-01
8.113113113113082E-02	-4.005776879052357E-01
8.147147147147116E-02	-4.001948013205623E-01
8.181181181181149E-02	-3.998118578777621E-01
8.215215215215182E-02	-3.994561837425328E-01
8.249249249249216E-02	-3.990731812643692E-01
8.283283283283249E-02	-3.986901216713938E-01
8.317317317317283E-02	-3.983070048387681E-01
8.351351351351316E-02	-3.979238306416131E-01
8.385385385385349E-02	-3.975405989550099E-01
8.419419419419383E-02	-3.971573096539956E-01
8.453453453453416E-02	-3.968016433203376E-01
8.487487487487450E-02	-3.964182942186121E-01
8.521521521521483E-02	-3.960348872476468E-01
8.555555555555516E-02	-3.956514222825993E-01
8.589589589589550E-02	-3.952678991985809E-01
8.623623623623583E-02	-3.948843178706542E-01
8.657657657657616E-02	-3.945286615549358E-01
8.691691691691650E-02	-3.941450198042059E-01
8.725725725725683E-02	-3.937613195563744E-01
8.759759759759717E-02	-3.933775606866141E-01
8.793793793793750E-02	-3.929937430700497E-01
8.827827827827783E-02	-3.926098665817541E-01
8.861861861861817E-02	-3.922542205081764E-01
8.895895895895850E-02	-3.918702829864217E-01
8.929929929929883E-02	-3.914862863413401E-01
8.963963963963917E-02	-3.911022304481089E-01
8.997997997997950E-02	-3.907181151818515E-01
9.032032032031984E-02	-3.903339404176388E-01
9.066066066066017E-02	-3.899783048701791E-01
9.100100100100050E-02	-3.895940684731968E-01
9.134134134134084E-02	-3.892097723282402E-01
9.168168168168117E-02	-3.888254163104798E-01
9.202202202202150E-02	-3.884410002950314E-01
9.236236236236184E-02	-3.880565241569587E-01
9.270270270270217E-02	-3.877008994792666E-01
9.304304304304251E-02	-3.873163611204219E-01
9.338338338338284E-02	-3.869317623905010E-01
9.372372372372317E-02	-3.865471031646627E-01
9.406406406406351E-02	-3.861623833180121E-01
9.440440440440384E-02	-3.857776027256004E-01
9.474474474474417E-02	-3.854219893210263E-01
9.508508508508451E-02	-3.850371459311669E-01
9.542542542542484E-02	-3.846522415486639E-01
9.576576576576518E-02	-3.842672760486677E-01
9.610610610610551E-02	-3.838822493062734E-01
9.644644644644584E-02	-3.834971611965202E-01
9.678678678678618E-02	-3.831415595283104E-01
9.712712712712651E-02	-3.827564080558190E-01
9.746746746746685E-02	-3.823711949706781E-01
9.780780780780718E-02	-3.819859201480270E-01
9.814814814814751E-02	-3.816005834629534E-01
9.848848848848785E-02	-3.812151847904935E-01
9.882882882882818E-02	-3.808297240056284E-01
9.916916916916851E-02	-3.804741327931114E-01
9.950950950950885E-02	-3.800886079730610E-01
9.984984984984918E-02	-3.797030207970901E-01
1.001901901901895E-01	-3.793173711402896E-01
1.005305305305298E-01	-3.789316588776955E-01
1.008708708708702E-01	-3.785458838842944E-01
1.012112112112105E-01	-3.781903055919667E-01
1.015515515515509E-01	-3.778044660228962E-01
1.018918918918912E-01	-3.774185634811695E-01
1.022322322322315E-01	-3.770325978418888E-01
1.025725725725719E-01	-3.766465689801101E-01
1.029129129129122E-01	-3.762604767708352E-01
1.032532532532525E-01	-3.759049120541809E-01
1.035935935935929E-01	-3.755187547406434E-01
1.039339339339332E-01	-3.751325338394769E-01
1.042742742742735E-01	-3.747462492258168E-01
1.046146146146139E-01	-3.743599007747498E-01
1.049549549549542E-01	-3.739734883613134E-01
1.052952952952945E-01	-3.736179379378801E-01
1.056356356356349E-01	-3.732314599037245E-01
1.059759759759752E-01	-3.728449176688508E-01
1.063163163163155E-01	-3.724583111084405E-01
1.066566566566559E-01	-3.720716400976347E-01
1.069969969969962E-01	-3.716849045115284E-01
1.073373373373365E-01	-3.713293691617485E-01
1.076776776776769E-01	-3.709425674508954E-01
1.080180180180172E-01	-3.705557009282472E-01
1.083583583583575E-01	-3.701687694690586E-01
1.086986986986979E-01	-3.697817729485479E-01
1.090390390390382E-01	-3.693947112418945E-01
1.093793793793785E-01	-3.690391918100359E-01
1.097197197197189E-01	-3.686520634873626E-01
1.100600600600592E-01	-3.682648697439912E-01
1.104004004003995E-01	-3.678776104552782E-01
1.107407407407399E-01	-3.674902854965448E-01
1.110810810810802E-01	-3.671028947430753E-01
1.114214214214205E-01	-3.667473921382827E-01
1.117617617617609E-01	-3.663599342906545E-01
1.121021021021012E-01	-3.659724104157758E-01
1.124424424424415E-01	-3.655848203891349E-01
1.127827827827819E-01	-3.651971640861879E-01
1.131231231231222E-01	-3.648094413823644E-01
1.134634634634625E-01	-3.644539565798149E-01
1.138038038038029E-01	-3.640661663172293E-01
1.141441441441432E-01	-3.636783094233937E-01
1.144844844844835E-01	-3.632903857739621E-01
1.148248248248239E-01	-3.629023952445637E-01
1.151651651651642E-01	-3.625143377108027E-01
1.155055055055045E-01	-3.621588717529654E-01
1.158458458458449E-01	-3.617707462098283E-01
1.161861861861852E-01	-3.613825534342203E-01
1.165265265265255E-01	-3.609942933019931E-01
1.168668668668659E-01	-3.606059656889916E-01
1.172072072072062E-01	-3.602175704710369E-01
1.175475475475465E-01	-3.598621244690388E-01
1.178878878878869E-01	-3.594736608055725E-01
1.182282282282272E-01	-3.590851293114305E-01
1.185685685685675E-01	-3.586965298627122E-01
1.189089089089079E-01	-3.583078623355152E-01
1.192492492492482E-01	-3.579191266059225E-01
1.195895895895885E-01	-3.575303225500097E-01
1.199299299299289E-01	-3.571748971447889E-01
1.202702702702692E-01	-3.567860241229652E-01
1.206106106106095E-01	-3.563970825519442E-01
1.209509509509499E-01	-3.560080723081183E-01
1.212912912912902E-01	-3.556189932678805E-01
1.216316316316305E-01	-3.552298453076241E-01
1.219719719719709E-01	-3.548744424806007E-01
1.223123123123112E-01	-3.544852251512483E-01
1.226526526526515E-01	-3.540959386816990E-01
1.229929929929919E-01	-3.537065829486992E-01
1.233333333333322E-01	-3.533171578290004E-01
1.236736736736725E-01	-3.529276631993648E-01
1.240140140140129E-01	-3.525722842892713E-01
1.243543543543532E-01	-3.521827199036527E-01
1.246946946946935E-01	-3.517930857907839E-01
1.250350350350339E-01	-3.514033818278161E-01
1.253753753753742E-01	-3.510136078919152E-01
1.257157157157145E-01	-3.506237638602701E-01
1.260560560560549E-01	-3.502684102813081E-01
1.263963963963952E-01	-3.498784961237522E-01
1.267367367367356E-01	-3.494885116561767E-01
1.270770770770759E-01	-3.490984567561945E-01
1.274174174174162E-01	-3.487083313014514E-01
1.277577577577566E-01	-3.483181351696155E-01
1.280980980980969E-01	-3.479278682383896E-01
1.284384384384372E-01	-3.475725418033454E-01
1.287787787787776E-01	-3.471822043051911E-01
1.291191191191179E-01	-3.467917957970372E-01
1.294594594594582E-01	-3.464013161570629E-01
1.297997997997986E-01	-3.460107652634902E-01
1.301401401401389E-01	-3.456201429945832E-01
1.304804804804792E-01	-3.452648451952747E-01
1.308208208208196E-01	-3.448741520284390E-01
1.311611611611599E-01	-3.444833872791138E-01
1.315015015015002E-01	-3.440925508260855E-01
1.318418418418406E-01	-3.437016425481934E-01
1.321821821821809E-01	-3.433106623243302E-01
1.325225225225212E-01	-3.429196100334470E-01
1.328628628628616E-01	-3.425643433936127E-01
1.332032032032019E-01	-3.421732198107014E-01
1.335435435435422E-01	-3.417820239577984E-01
1.338838838838826E-01	-3.413907557144359E-01
1.342242242242229E-01	-3.409994149602116E-01
1.345645645645632E-01	-3.406080015747930E-01
1.349049049049036E-01	-3.402527672600990E-01
1.352452452452439E-01	-3.398612822943381E-01
1.355855855855842E-01	-3.394697244983416E-01
1.359259259259246E-01	-3.390780937524155E-01
1.362662662662649E-01	-3.386863899369373E-01
1.366066066066052E-01	-3.382946129323742E-01
1.369469469469456E-01	-3.379027626192739E-01
1.372872872872859E-01	-3.375475639424454E-01
1.376276276276262E-01	-3.371556417064900E-01
1.379679679679666E-01	-3.367636459677327E-01
1.383083083083069E-01	-3.363715766074262E-01
1.386486486486472E-01	-3.359794335069142E-01
1.389889889889876E-01	-3.355872165476461E-01
1.393293293293279E-01	-3.352320542938418E-01
1.396696696696682E-01	-3.348397651703111E-01
1.400100100100086E-01	-3.344474019982243E-01
1.403503503503489E-01	-3.340549646597895E-01
1.406906906906892E-01	-3.336624530373244E-01
1.410310310310296E-01	-3.332698670132634E-01
1.413713713713699E-01	-3.328772064701586E-01
1.417117117117102E-01	-3.325220848247449E-01
1.420520520520506E-01	-3.321293518316854E-01
1.423923923923909E-01	-3.317365441352259E-01
1.427327327327312E-01	-3.313436616187517E-01
1.430730730730716E-01	-3.309507041657779E-01
1.434134134134119E-01	-3.305576716599594E-01
1.437537537537522E-01	-3.301645639850836E-01
1.440940940940926E-01	-3.298094858245565E-01
1.444344344344329E-01	-3.294163054468698E-01
1.447747747747732E-01	-3.290230497216021E-01
1.451151151151136E-01	-3.286297185334537E-01
1.454554554554539E-01	-3.282363117672807E-01
1.457957957957942E-01	-3.278428293080908E-01
1.461361361361346E-01	-3.274492710410529E-01
1.464764764764749E-01	-3.270942393996096E-01
1.468168168168152E-01	-3.267006082115342E-01
1.471571571571556E-01	-3.263069010433320E-01
1.474974974974959E-01	-3.259131177811690E-01
1.478378378378362E-01	-3.255192583113826E-01
1.481781781781766E-01	-3.251253225204876E-01
1.485185185185169E-01	-3.247313102951823E-01
1.488588588588572E-01	-3.243763283704618E-01
1.491991991991976E-01	-3.239822430424231E-01
1.495395395395379E-01	-3.235880811143836E-01
1.498798798798782E-01	-3.231938424741230E-01
1.502202202202186E-01	-3.227995270096237E-01
1.505605605605589E-01	-3.224051346090638E-01
1.509009009008992E-01	-3.220106651608299E-01
1.512412412412396E-01	-3.216557363199376E-01
1.515815815815799E-01	-3.212611936258110E-01
1.519219219219202E-01	-3.208665737255738E-01
1.522622622622606E-01	-3.204718765087896E-01
1.526026026026009E-01	-3.200771018652465E-01
1.529429429429413E-01	-3.196922475901253E-01
1.532832832832816E-01	-3.192973382566469E-01
1.536236236236219E-01	-3.189023512112806E-01
1.539639639639623E-01	-3.185273951641803E-01
1.543043043043026E-01	-3.181322935926619E-01
1.546446446446429E-01	-3.177371140710623E-01
1.549849849849833E-01	-3.173418564910718E-01
1.553253253253236E-01	-3.169667812410903E-01
1.556656656656639E-01	-3.165714087648933E-01
1.560060060060043E-01	-3.161759579961614E-01
1.563463463463446E-01	-3.157804288277801E-01
1.566866866866849E-01	-3.154052344738280E-01
1.570270270270253E-01	-3.150095900517364E-01
1.573673673673656E-01	-3.146138670000804E-01
1.577077077077059E-01	-3.142385904131508E-01
1.580480480480463E-01	-3.138427518839714E-01
1.583883883883866E-01	-3.134468344987089E-01
1.587287287287269E-01	-3.130508381525373E-01
1.590690690690673E-01	-3.126754427544527E-01
1.594094094094076E-01	-3.122793305965578E-01
1.597497497497479E-01	-3.118831392557997E-01
1.600900900900883E-01	-3.114868686287279E-01
1.604304304304286E-01	-3.110905186122043E-01
1.607707707707689E-01	-3.107149678440490E-01
