# barionic density, fermi momentum
1.109109109109109E-02	1.080536407595701E+02
1.218218218218218E-02	1.114866871576524E+02
1.327327327327328E-02	1.147204017291805E+02
1.436436436436437E-02	1.177814196856621E+02
1.545545545545546E-02	1.206911011787826E+02
1.654654654654655E-02	1.234668691838234E+02
1.763763763763764E-02	1.261231432743481E+02
1.872872872872873E-02	1.286720085519459E+02
1.981981981981983E-02	1.311237057501493E+02
2.091091091091092E-02	1.334869974349032E+02
2.200200200200201E-02	1.357694463938364E+02
2.309309309309310E-02	1.379776305394684E+02
2.418418418418419E-02	1.401173110915565E+02
2.527527527527529E-02	1.421935658260264E+02
2.636636636636638E-02	1.442108958276698E+02
2.745745745745747E-02	1.461733118839986E+02
2.854854854854856E-02	1.480844050505595E+02
2.963963963963965E-02	1.499474047766521E+02
3.073073073073074E-02	1.517652271577209E+02
3.182182182182183E-02	1.535405152796448E+02
3.291291291291292E-02	1.552756731755133E+02
3.400400400400401E-02	1.569728945827458E+02
3.509509509509510E-02	1.586341874367598E+02
3.618618618618619E-02	1.602613948451675E+02
3.727727727727728E-02	1.618562131382926E+02
3.836836836836836E-02	1.634202074765732E+02
3.945945945945945E-02	1.649548254050987E+02
4.055055055055054E-02	1.664614086741973E+02
4.164164164164163E-02	1.679412035882512E+02
4.273273273273272E-02	1.693953700994937E+02
4.382382382382381E-02	1.708249898269281E+02
4.491491491491489E-02	1.722310731508455E+02
4.600600600600598E-02	1.736145655092253E+02
4.709709709709707E-02	1.749763530024864E+02
4.818818818818816E-02	1.763172673967296E+02
4.927927927927925E-02	1.776380906021002E+02
5.037037037037034E-02	1.789395586916693E+02
5.146146146146142E-02	1.802223655168490E+02
5.255255255255251E-02	1.814871659674929E+02
5.364364364364360E-02	1.827345789182122E+02
5.473473473473469E-02	1.839651898968405E+02
5.582582582582578E-02	1.851795535062368E+02
5.691691691691687E-02	1.863781956265755E+02
5.800800800800796E-02	1.875616154218256E+02
5.909909909909904E-02	1.887302871711633E+02
6.019019019019013E-02	1.898846619435284E+02
6.128128128128122E-02	1.910251691313428E+02
6.237237237237231E-02	1.921522178575200E+02
6.346346346346340E-02	1.932661982682581E+02
6.455455455455450E-02	1.943674827226805E+02
6.564564564564560E-02	1.954564268891521E+02
6.673673673673669E-02	1.965333707570136E+02
6.782782782782779E-02	1.975986395715306E+02
6.891891891891888E-02	1.986525446990177E+02
7.001001001000998E-02	1.996953844283740E+02
7.110110110110107E-02	2.007274447146149E+02
7.219219219219217E-02	2.017489998694207E+02
7.328328328328326E-02	2.027603132032170E+02
7.437437437437436E-02	2.037616376228570E+02
7.546546546546545E-02	2.047532161885800E+02
7.655655655655655E-02	2.057352826335654E+02
7.764764764764764E-02	2.067080618490907E+02
7.873873873873874E-02	2.076717703380188E+02
7.982982982982983E-02	2.086266166390923E+02
8.092092092092093E-02	2.095728017242834E+02
8.201201201201203E-02	2.105105193712512E+02
8.310310310310312E-02	2.114399565127741E+02
8.419419419419422E-02	2.123612935648631E+02
8.528528528528531E-02	2.132747047351153E+02
8.637637637637641E-02	2.141803583127344E+02
8.746746746746750E-02	2.150784169415243E+02
8.855855855855860E-02	2.159690378770555E+02
8.964964964964969E-02	2.168523732291049E+02
9.074074074074079E-02	2.177285701903788E+02
9.183183183183188E-02	2.185977712524536E+02
9.292292292292298E-02	2.194601144097879E+02
9.401401401401407E-02	2.203157333525985E+02
9.510510510510517E-02	2.211647576493309E+02
9.619619619619627E-02	2.220073129193950E+02
9.728728728728736E-02	2.228435209967934E+02
9.837837837837846E-02	2.236735000852157E+02
9.946946946946955E-02	2.244973649051352E+02
1.005605605605606E-01	2.253152268334022E+02
1.016516516516517E-01	2.261271940357950E+02
1.027427427427428E-01	2.269333715929531E+02
1.038338338338339E-01	2.277338616200927E+02
1.049249249249250E-01	2.285287633808701E+02
1.060160160160161E-01	2.293181733957395E+02
1.071071071071072E-01	2.301021855451231E+02
1.081981981981983E-01	2.308808911676937E+02
1.092892892892894E-01	2.316543791540466E+02
1.103803803803805E-01	2.324227360360219E+02
1.114714714714716E-01	2.331860460719202E+02
1.125625625625627E-01	2.339443913278368E+02
1.136536536536538E-01	2.346978517553305E+02
1.147447447447449E-01	2.354465052656216E+02
1.158358358358360E-01	2.361904278005091E+02
1.169269269269271E-01	2.369296934001793E+02
1.180180180180182E-01	2.376643742680711E+02
1.191091091091093E-01	2.383945408329508E+02
1.202002002002004E-01	2.391202618083417E+02
1.212912912912915E-01	2.398416042494431E+02
1.223823823823826E-01	2.405586336076672E+02
1.234734734734736E-01	2.412714137829141E+02
1.245645645645647E-01	2.419800071736960E+02
1.256556556556558E-01	2.426844747252196E+02
1.267467467467469E-01	2.433848759755252E+02
1.278378378378380E-01	2.440812690997775E+02
1.289289289289291E-01	2.447737109527972E+02
1.300200200200202E-01	2.454622571099175E+02
1.311111111111113E-01	2.461469619062449E+02
1.322022022022024E-01	2.468278784744004E+02
1.332932932932935E-01	2.475050587808093E+02
1.343843843843846E-01	2.481785536606100E+02
1.354754754754757E-01	2.488484128512428E+02
1.365665665665668E-01	2.495146850247797E+02
1.376576576576579E-01	2.501774178190529E+02
1.387487487487490E-01	2.508366578676328E+02
1.398398398398401E-01	2.514924508287114E+02
1.409309309309312E-01	2.521448414129342E+02
1.420220220220223E-01	2.527938734102310E+02
1.431131131131134E-01	2.534395897156861E+02
1.442042042042045E-01	2.540820323544903E+02
1.452952952952956E-01	2.547212425060154E+02
1.463863863863867E-01	2.553572605270450E+02
1.474774774774777E-01	2.559901259742013E+02
1.485685685685688E-01	2.566198776255980E+02
1.496596596596599E-01	2.572465535017535E+02
1.507507507507510E-01	2.578701908857944E+02
1.518418418418421E-01	2.584908263429783E+02
1.529329329329332E-01	2.591084957395622E+02
1.540240240240243E-01	2.597232342610466E+02
1.551151151151154E-01	2.603350764298155E+02
1.562062062062065E-01	2.609440561221999E+02
1.572972972972976E-01	2.615502065849863E+02
1.583883883883887E-01	2.621535604513918E+02
1.594794794794798E-01	2.627541497565269E+02
1.605705705705709E-01	2.633520059523654E+02
1.616616616616620E-01	2.639471599222415E+02
1.627527527527531E-01	2.645396419948903E+02
1.638438438438442E-01	2.651294819580507E+02
1.649349349349353E-01	2.657167090716462E+02
1.660260260260264E-01	2.663013520805596E+02
1.671171171171175E-01	2.668834392270173E+02
1.682082082082086E-01	2.674629982625959E+02
1.692992992992997E-01	2.680400564598680E+02
1.703903903903908E-01	2.686146406236963E+02
1.714814814814818E-01	2.691867771021928E+02
1.725725725725729E-01	2.697564917973522E+02
1.736636636636640E-01	2.703238101753721E+02
1.747547547547551E-01	2.708887572766724E+02
1.758458458458462E-01	2.714513577256221E+02
1.769369369369373E-01	2.720116357399855E+02
1.780280280280284E-01	2.725696151400973E+02
1.791191191191195E-01	2.731253193577756E+02
1.802102102102106E-01	2.736787714449822E+02
1.813013013013017E-01	2.742299940822383E+02
1.823923923923928E-01	2.747790095868050E+02
1.834834834834839E-01	2.753258399206352E+02
1.845745745745750E-01	2.758705066981056E+02
1.856656656656661E-01	2.764130311935357E+02
1.867567567567572E-01	2.769534343485013E+02
1.878478478478483E-01	2.774917367789485E+02
1.889389389389394E-01	2.780279587821155E+02
1.900300300300305E-01	2.785621203432684E+02
1.911211211211216E-01	2.790942411422564E+02
1.922122122122127E-01	2.796243405598930E+02
1.933033033033038E-01	2.801524376841688E+02
1.943943943943948E-01	2.806785513162998E+02
1.954854854854859E-01	2.812026999766193E+02
1.965765765765770E-01	2.817249019103146E+02
1.976676676676681E-01	2.822451750930176E+02
1.987587587587592E-01	2.827635372362494E+02
1.998498498498503E-01	2.832800057927276E+02
2.009409409409414E-01	2.837945979615372E+02
2.020320320320325E-01	2.843073306931717E+02
2.031231231231236E-01	2.848182206944469E+02
2.042142142142147E-01	2.853272844332915E+02
2.053053053053058E-01	2.858345381434193E+02
2.063963963963969E-01	2.863399978288845E+02
2.074874874874880E-01	2.868436792685265E+02
2.085785785785791E-01	2.873455980203038E+02
2.096696696696702E-01	2.878457694255241E+02
2.107607607607613E-01	2.883442086129708E+02
2.118518518518524E-01	2.888409305029298E+02
2.129429429429435E-01	2.893359498111212E+02
2.140340340340346E-01	2.898292810525348E+02
2.151251251251257E-01	2.903209385451771E+02
2.162162162162168E-01	2.908109364137270E+02
2.173073073073079E-01	2.912992885931085E+02
2.183983983983989E-01	2.917860088319772E+02
2.194894894894900E-01	2.922711106961272E+02
2.205805805805811E-01	2.927546075718187E+02
2.216716716716722E-01	2.932365126690289E+02
2.227627627627633E-01	2.937168390246281E+02
2.238538538538544E-01	2.941955995054840E+02
2.249449449449455E-01	2.946728068114946E+02
2.260360360360366E-01	2.951484734785532E+02
2.271271271271277E-01	2.956226118814465E+02
2.282182182182188E-01	2.960952342366879E+02
2.293093093093099E-01	2.965663526052879E+02
2.304004004004010E-01	2.970359788954621E+02
2.314914914914921E-01	2.975041248652811E+02
2.325825825825832E-01	2.979708021252605E+02
2.336736736736743E-01	2.984360221408957E+02
2.347647647647654E-01	2.988997962351405E+02
2.358558558558565E-01	2.993621355908325E+02
2.369469469469476E-01	2.998230512530663E+02
2.380380380380387E-01	3.002825541315157E+02
2.391291291291298E-01	3.007406550027059E+02
2.402202202202209E-01	3.011973645122383E+02
2.413113113113119E-01	3.016526931769670E+02
2.424024024024030E-01	3.021066513871307E+02
2.434934934934941E-01	3.025592494084388E+02
2.445845845845852E-01	3.030104973841147E+02
2.456756756756763E-01	3.034604053368965E+02
2.467667667667674E-01	3.039089831709954E+02
2.478578578578585E-01	3.043562406740155E+02
2.489489489489496E-01	3.048021875188326E+02
2.500400400400407E-01	3.052468332654352E+02
2.511311311311318E-01	3.056901873627284E+02
2.522222222222228E-01	3.061322591503008E+02
2.533133133133139E-01	3.065730578601562E+02
2.544044044044050E-01	3.070125926184097E+02
2.554954954954960E-01	3.074508724469515E+02
2.565865865865871E-01	3.078879062650754E+02
2.576776776776782E-01	3.083237028910773E+02
2.587687687687693E-01	3.087582710438205E+02
2.598598598598603E-01	3.091916193442709E+02
2.609509509509514E-01	3.096237563170020E+02
2.620420420420425E-01	3.100546903916712E+02
2.631331331331335E-01	3.104844299044661E+02
2.642242242242246E-01	3.109129830995242E+02
2.653153153153157E-01	3.113403581303248E+02
2.664064064064067E-01	3.117665630610537E+02
2.674974974974978E-01	3.121916058679427E+02
2.685885885885889E-01	3.126154944405833E+02
2.696796796796799E-01	3.130382365832152E+02
2.707707707707710E-01	3.134598400159908E+02
2.718618618618621E-01	3.138803123762165E+02
2.729529529529531E-01	3.142996612195694E+02
2.740440440440442E-01	3.147178940212927E+02
2.751351351351353E-01	3.151350181773683E+02
2.762262262262263E-01	3.155510410056676E+02
2.773173173173174E-01	3.159659697470816E+02
2.784084084084085E-01	3.163798115666299E+02
2.794994994994995E-01	3.167925735545493E+02
2.805905905905906E-01	3.172042627273631E+02
2.816816816816817E-01	3.176148860289310E+02
2.827727727727727E-01	3.180244503314792E+02
2.838638638638638E-01	3.184329624366127E+02
2.849549549549549E-01	3.188404290763099E+02
2.860460460460459E-01	3.192468569138984E+02
2.871371371371370E-01	3.196522525450139E+02
2.882282282282281E-01	3.200566224985427E+02
2.893193193193191E-01	3.204599732375460E+02
2.904104104104102E-01	3.208623111601702E+02
2.915015015015013E-01	3.212636426005394E+02
2.925925925925923E-01	3.216639738296329E+02
2.936836836836834E-01	3.220633110561477E+02
2.947747747747745E-01	3.224616604273460E+02
2.958658658658656E-01	3.228590280298877E+02
2.969569569569566E-01	3.232554198906492E+02
2.980480480480477E-01	3.236508419775274E+02
2.991391391391388E-01	3.240453002002307E+02
3.002302302302298E-01	3.244388004110564E+02
3.013213213213209E-01	3.248313484056545E+02
3.024124124124120E-01	3.252229499237790E+02
3.035035035035030E-01	3.256136106500266E+02
3.045945945945941E-01	3.260033362145626E+02
3.056856856856852E-01	3.263921321938356E+02
3.067767767767762E-01	3.267800041112786E+02
3.078678678678673E-01	3.271669574380010E+02
3.089589589589584E-01	3.275529975934664E+02
3.100500500500494E-01	3.279381299461615E+02
3.111411411411405E-01	3.283223598142524E+02
3.122322322322316E-01	3.287056924662315E+02
3.133233233233226E-01	3.290881331215527E+02
3.144144144144137E-01	3.294696869512573E+02
3.155055055055048E-01	3.298503590785890E+02
3.165965965965958E-01	3.302301545795993E+02
3.176876876876869E-01	3.306090784837434E+02
3.187787787787780E-01	3.309871357744660E+02
3.198698698698690E-01	3.313643313897782E+02
3.209609609609601E-01	3.317406702228253E+02
3.220520520520512E-01	3.321161571224451E+02
3.231431431431422E-01	3.324907968937179E+02
3.242342342342333E-01	3.328645942985076E+02
3.253253253253244E-01	3.332375540559942E+02
3.264164164164154E-01	3.336096808431982E+02
3.275075075075065E-01	3.339809792954971E+02
3.285985985985976E-01	3.343514540071328E+02
3.296896896896886E-01	3.347211095317125E+02
3.307807807807797E-01	3.350899503827010E+02
3.318718718718708E-01	3.354579810339056E+02
3.329629629629619E-01	3.358252059199539E+02
3.340540540540529E-01	3.361916294367638E+02
3.351451451451440E-01	3.365572559420066E+02
3.362362362362351E-01	3.369220897555634E+02
3.373273273273261E-01	3.372861351599738E+02
3.384184184184172E-01	3.376493964008785E+02
3.395095095095083E-01	3.380118776874551E+02
3.406006006005993E-01	3.383735831928473E+02
3.416916916916904E-01	3.387345170545875E+02
3.427827827827815E-01	3.390946833750136E+02
3.438738738738725E-01	3.394540862216791E+02
3.449649649649636E-01	3.398127296277574E+02
3.460560560560547E-01	3.401706175924405E+02
3.471471471471457E-01	3.405277540813304E+02
3.482382382382368E-01	3.408841430268272E+02
3.493293293293279E-01	3.412397883285091E+02
3.504204204204189E-01	3.415946938535082E+02
3.515115115115100E-01	3.419488634368806E+02
3.526026026026011E-01	3.423023008819711E+02
3.536936936936921E-01	3.426550099607726E+02
3.547847847847832E-01	3.430069944142805E+02
3.558758758758743E-01	3.433582579528414E+02
3.569669669669653E-01	3.437088042564978E+02
3.580580580580564E-01	3.440586369753275E+02
3.591491491491475E-01	3.444077597297774E+02
3.602402402402385E-01	3.447561761109937E+02
3.613313313313296E-01	3.451038896811471E+02
3.624224224224207E-01	3.454509039737528E+02
3.635135135135117E-01	3.457972224939871E+02
3.646046046046028E-01	3.461428487189984E+02
3.656956956956939E-01	3.464877860982150E+02
3.667867867867849E-01	3.468320380536475E+02
3.678778778778760E-01	3.471756079801878E+02
3.689689689689671E-01	3.475184992459040E+02
3.700600600600581E-01	3.478607151923305E+02
3.711511511511492E-01	3.482022591347548E+02
3.722422422422403E-01	3.485431343625003E+02
3.733333333333314E-01	3.488833441392046E+02
3.744244244244224E-01	3.492228917030950E+02
3.755155155155135E-01	3.495617802672595E+02
3.766066066066046E-01	3.499000130199142E+02
3.776976976976956E-01	3.502375931246679E+02
3.787887887887867E-01	3.505745237207814E+02
3.798798798798778E-01	3.509108079234257E+02
3.809709709709688E-01	3.512464488239345E+02
3.820620620620599E-01	3.515814494900545E+02
3.831531531531510E-01	3.519158129661926E+02
3.842442442442420E-01	3.522495422736587E+02
3.853353353353331E-01	3.525826404109064E+02
3.864264264264242E-01	3.529151103537700E+02
3.875175175175152E-01	3.532469550556985E+02
3.886086086086063E-01	3.535781774479861E+02
3.896996996996974E-01	3.539087804400008E+02
3.907907907907884E-01	3.542387669194084E+02
3.918818818818795E-01	3.545681397523952E+02
3.929729729729706E-01	3.548969017838868E+02
3.940640640640616E-01	3.552250558377643E+02
3.951551551551527E-01	3.555526047170777E+02
3.962462462462438E-01	3.558795512042569E+02
3.973373373373348E-01	3.562058980613194E+02
3.984284284284259E-01	3.565316480300759E+02
3.995195195195170E-01	3.568568038323325E+02
4.006106106106080E-01	3.571813681700916E+02
4.017017017016991E-01	3.575053437257489E+02
4.027927927927902E-01	3.578287331622887E+02
4.038838838838812E-01	3.581515391234765E+02
4.049749749749723E-01	3.584737642340494E+02
4.060660660660634E-01	3.587954110999034E+02
4.071571571571544E-01	3.591164823082794E+02
4.082482482482455E-01	3.594369804279461E+02
4.093393393393366E-01	3.597569080093808E+02
4.104304304304277E-01	3.600762675849482E+02
4.115215215215187E-01	3.603950616690767E+02
4.126126126126098E-01	3.607132927584324E+02
4.137037037037009E-01	3.610309633320917E+02
4.147947947947919E-01	3.613480758517107E+02
4.158858858858830E-01	3.616646327616934E+02
4.169769769769741E-01	3.619806364893574E+02
4.180680680680651E-01	3.622960894450976E+02
4.191591591591562E-01	3.626109940225484E+02
4.202502502502473E-01	3.629253525987428E+02
4.213413413413383E-01	3.632391675342713E+02
4.224324324324294E-01	3.635524411734368E+02
4.235235235235205E-01	3.638651758444096E+02
4.246146146146115E-01	3.641773738593792E+02
4.257057057057026E-01	3.644890375147048E+02
4.267967967967937E-01	3.648001690910641E+02
4.278878878878847E-01	3.651107708536001E+02
4.289789789789758E-01	3.654208450520661E+02
4.300700700700669E-01	3.657303939209691E+02
4.311611611611579E-01	3.660394196797118E+02
4.322522522522490E-01	3.663479245327325E+02
4.333433433433401E-01	3.666559106696430E+02
4.344344344344311E-01	3.669633802653664E+02
4.355255255255222E-01	3.672703354802711E+02
4.366166166166133E-01	3.675767784603051E+02
4.377077077077043E-01	3.678827113371281E+02
4.387987987987954E-01	3.681881362282413E+02
4.398898898898865E-01	3.684930552371171E+02
4.409809809809775E-01	3.687974704533264E+02
4.420720720720686E-01	3.691013839526642E+02
4.431631631631597E-01	3.694047977972746E+02
4.442542542542507E-01	3.697077140357740E+02
4.453453453453418E-01	3.700101347033724E+02
4.464364364364329E-01	3.703120618219940E+02
4.475275275275239E-01	3.706134974003965E+02
4.486186186186150E-01	3.709144434342876E+02
4.497097097097061E-01	3.712149019064429E+02
4.508008008007972E-01	3.715148747868193E+02
4.518918918918882E-01	3.718143640326696E+02
4.529829829829793E-01	3.721133715886547E+02
4.540740740740704E-01	3.724118993869545E+02
4.551651651651614E-01	3.727099493473781E+02
4.562562562562525E-01	3.730075233774720E+02
4.573473473473436E-01	3.733046233726281E+02
4.584384384384346E-01	3.736012512161895E+02
4.595295295295257E-01	3.738974087795558E+02
4.606206206206168E-01	3.741930979222868E+02
4.617117117117078E-01	3.744883204922053E+02
4.628028028027989E-01	3.747830783254990E+02
4.638938938938900E-01	3.750773732468209E+02
4.649849849849810E-01	3.753712070693880E+02
4.660760760760721E-01	3.756645815950808E+02
4.671671671671632E-01	3.759574986145396E+02
4.682582582582542E-01	3.762499599072612E+02
4.693493493493453E-01	3.765419672416937E+02
4.704404404404364E-01	3.768335223753309E+02
4.715315315315274E-01	3.771246270548050E+02
4.726226226226185E-01	3.774152830159793E+02
4.737137137137096E-01	3.777054919840386E+02
4.748048048048006E-01	3.779952556735797E+02
4.758958958958917E-01	3.782845757887004E+02
4.769869869869828E-01	3.785734540230881E+02
4.780780780780738E-01	3.788618920601062E+02
4.791691691691649E-01	3.791498915728814E+02
4.802602602602560E-01	3.794374542243884E+02
4.813513513513470E-01	3.797245816675346E+02
4.824424424424381E-01	3.800112755452440E+02
4.835335335335292E-01	3.802975374905395E+02
4.846246246246202E-01	3.805833691266250E+02
4.857157157157113E-01	3.808687720669662E+02
4.868068068068024E-01	3.811537479153713E+02
4.878978978978935E-01	3.814382982660694E+02
4.889889889889845E-01	3.817224247037897E+02
4.900800800800756E-01	3.820061288038391E+02
4.911711711711667E-01	3.822894121321786E+02
4.922622622622577E-01	3.825722762454999E+02
4.933533533533488E-01	3.828547226913006E+02
4.944444444444399E-01	3.831367530079581E+02
4.955355355355309E-01	3.834183687248043E+02
4.966266266266220E-01	3.836995713621976E+02
4.977177177177131E-01	3.839803624315961E+02
4.988088088088041E-01	3.842607434356282E+02
4.998998998998952E-01	3.845407158681639E+02
5.009909909909863E-01	3.848202812143848E+02
5.020820820820774E-01	3.850994409508532E+02
5.031731731731685E-01	3.853781965455809E+02
5.042642642642595E-01	3.856565494580973E+02
