# barionic density, mass
1.109109109109109E-02	3.922354100112915E+02
1.218218218218218E-02	3.915335064163208E+02
1.327327327327328E-02	3.908163440475464E+02
1.436436436436437E-02	3.901144404525758E+02
1.545545545545546E-02	3.894125368576050E+02
1.654654654654655E-02	3.886953744888306E+02
1.763763763763764E-02	3.879934708938599E+02
1.872872872872873E-02	3.872763085250855E+02
1.981981981981983E-02	3.865744049301148E+02
2.091091091091092E-02	3.858725013351441E+02
2.200200200200201E-02	3.851553389663696E+02
2.309309309309310E-02	3.844534353713989E+02
2.418418418418419E-02	3.837362730026244E+02
2.527527527527529E-02	3.830343694076538E+02
2.636636636636638E-02	3.823172070388794E+02
2.745745745745747E-02	3.816153034439086E+02
2.854854854854856E-02	3.808981410751343E+02
2.963963963963965E-02	3.801962374801635E+02
3.073073073073074E-02	3.794790751113891E+02
3.182182182182183E-02	3.787619127426148E+02
3.291291291291292E-02	3.780600091476440E+02
3.400400400400401E-02	3.773428467788696E+02
3.509509509509510E-02	3.766256844100952E+02
3.618618618618619E-02	3.759085220413208E+02
3.727727727727728E-02	3.752066184463501E+02
3.836836836836836E-02	3.744894560775757E+02
3.945945945945945E-02	3.737722937088013E+02
4.055055055055054E-02	3.730551313400268E+02
4.164164164164163E-02	3.723379689712524E+02
4.273273273273272E-02	3.716208066024781E+02
4.382382382382381E-02	3.709036442337036E+02
4.491491491491489E-02	3.701864818649292E+02
4.600600600600598E-02	3.694693194961548E+02
4.709709709709707E-02	3.687521571273804E+02
4.818818818818816E-02	3.680349947586060E+02
4.927927927927925E-02	3.673178323898316E+02
5.037037037037034E-02	3.665854112472534E+02
5.146146146146142E-02	3.658682488784790E+02
5.255255255255251E-02	3.651510865097047E+02
5.364364364364360E-02	3.644186653671266E+02
5.473473473473469E-02	3.637015029983521E+02
5.582582582582578E-02	3.629843406295776E+02
5.691691691691687E-02	3.622519194869994E+02
5.800800800800796E-02	3.615347571182251E+02
5.909909909909904E-02	3.608023359756470E+02
6.019019019019013E-02	3.600699148330689E+02
6.128128128128122E-02	3.593527524642944E+02
6.237237237237231E-02	3.586203313217163E+02
6.346346346346340E-02	3.578879101791382E+02
6.455455455455450E-02	3.571707478103638E+02
6.564564564564560E-02	3.564383266677856E+02
6.673673673673669E-02	3.557059055252075E+02
6.782782782782779E-02	3.549734843826294E+02
6.891891891891888E-02	3.542410632400513E+02
7.001001001000998E-02	3.535086420974732E+02
7.110110110110107E-02	3.527762209548951E+02
7.219219219219217E-02	3.520437998123169E+02
7.328328328328326E-02	3.512961198959350E+02
7.437437437437436E-02	3.505636987533569E+02
7.546546546546545E-02	3.498312776107788E+02
7.655655655655655E-02	3.490988564682007E+02
7.764764764764764E-02	3.483511765518189E+02
7.873873873873874E-02	3.476187554092407E+02
7.982982982982983E-02	3.468710754928588E+02
8.092092092092093E-02	3.461386543502807E+02
8.201201201201203E-02	3.453909744338989E+02
8.310310310310312E-02	3.446432945175171E+02
8.419419419419422E-02	3.439108733749390E+02
8.528528528528531E-02	3.431631934585571E+02
8.637637637637641E-02	3.424155135421753E+02
8.746746746746750E-02	3.416678336257935E+02
8.855855855855860E-02	3.409201537094117E+02
8.964964964964969E-02	3.401724737930298E+02
9.074074074074079E-02	3.394247938766480E+02
9.183183183183188E-02	3.386771139602662E+02
9.292292292292298E-02	3.379294340438844E+02
9.401401401401407E-02	3.371817541275025E+02
9.510510510510517E-02	3.364188154373170E+02
9.619619619619627E-02	3.356711355209351E+02
9.728728728728736E-02	3.349234556045533E+02
9.837837837837846E-02	3.341605169143677E+02
9.946946946946955E-02	3.334128369979859E+02
1.005605605605606E-01	3.326498983078003E+02
1.016516516516517E-01	3.318869596176148E+02
1.027427427427428E-01	3.311392797012329E+02
1.038338338338339E-01	3.303763410110474E+02
1.049249249249250E-01	3.296134023208618E+02
1.060160160160161E-01	3.288504636306762E+02
1.071071071071072E-01	3.280875249404908E+02
1.081981981981983E-01	3.273245862503052E+02
1.092892892892894E-01	3.265616475601196E+02
1.103803803803805E-01	3.257987088699341E+02
1.114714714714716E-01	3.250205114059448E+02
1.125625625625627E-01	3.242575727157594E+02
1.136536536536538E-01	3.234946340255738E+02
1.147447447447449E-01	3.227164365615845E+02
1.158358358358360E-01	3.219534978713989E+02
1.169269269269271E-01	3.211753004074096E+02
1.180180180180182E-01	3.203971029434204E+02
1.191091091091093E-01	3.196341642532349E+02
1.202002002002004E-01	3.188559667892456E+02
1.212912912912915E-01	3.180777693252563E+02
1.223823823823826E-01	3.172995718612672E+02
1.234734734734736E-01	3.165213743972779E+02
1.245645645645647E-01	3.157431769332886E+02
1.256556556556558E-01	3.149497206954957E+02
1.267467467467469E-01	3.141715232315064E+02
1.278378378378380E-01	3.133933257675171E+02
1.289289289289291E-01	3.125998695297242E+02
1.300200200200202E-01	3.118216720657349E+02
1.311111111111113E-01	3.110282158279419E+02
1.322022022022024E-01	3.102500183639527E+02
1.332932932932935E-01	3.094565621261597E+02
1.343843843843846E-01	3.086631058883668E+02
1.354754754754757E-01	3.078696496505738E+02
1.365665665665668E-01	3.070761934127808E+02
1.376576576576579E-01	3.062827371749878E+02
1.387487487487490E-01	3.054892809371948E+02
1.398398398398401E-01	3.046958246994019E+02
1.409309309309312E-01	3.039023684616089E+02
1.420220220220223E-01	3.030936534500123E+02
1.431131131131134E-01	3.023001972122192E+02
1.442042042042045E-01	3.014914822006226E+02
1.452952952952956E-01	3.006980259628297E+02
1.463863863863867E-01	2.998893109512329E+02
1.474774774774777E-01	2.990805959396363E+02
1.485685685685688E-01	2.982718809280395E+02
1.496596596596599E-01	2.974631659164429E+02
1.507507507507510E-01	2.966544509048462E+02
1.518418418418421E-01	2.958457358932495E+02
1.529329329329332E-01	2.950370208816529E+02
1.540240240240243E-01	2.942283058700563E+02
1.551151151151154E-01	2.934043320846558E+02
1.562062062062065E-01	2.925956170730591E+02
1.572972972972976E-01	2.917716432876587E+02
1.583883883883887E-01	2.909476695022583E+02
1.594794794794798E-01	2.901389544906617E+02
1.605705705705709E-01	2.893149807052613E+02
1.616616616616620E-01	2.884910069198609E+02
1.627527527527531E-01	2.876670331344604E+02
1.638438438438442E-01	2.868430593490601E+02
1.649349349349353E-01	2.860038267898560E+02
1.660260260260264E-01	2.851798530044556E+02
1.671171171171175E-01	2.843406204452515E+02
1.682082082082086E-01	2.835166466598511E+02
1.692992992992997E-01	2.826774141006470E+02
1.703903903903908E-01	2.818534403152466E+02
1.714814814814818E-01	2.810142077560425E+02
1.725725725725729E-01	2.801749751968383E+02
1.736636636636640E-01	2.793357426376343E+02
1.747547547547551E-01	2.784965100784302E+02
1.758458458458462E-01	2.776420187454224E+02
1.769369369369373E-01	2.768027861862182E+02
1.780280280280284E-01	2.759635536270141E+02
1.791191191191195E-01	2.751090622940063E+02
1.802102102102106E-01	2.742545709609985E+02
1.813013013013017E-01	2.734153384017944E+02
1.823923923923928E-01	2.725608470687866E+02
1.834834834834839E-01	2.717063557357789E+02
1.845745745745750E-01	2.708518644027711E+02
1.856656656656661E-01	2.699821142959595E+02
1.867567567567572E-01	2.691276229629516E+02
1.878478478478483E-01	2.682731316299438E+02
1.889389389389394E-01	2.674033815231323E+02
1.900300300300305E-01	2.665336314163208E+02
1.911211211211216E-01	2.656791400833130E+02
1.922122122122127E-01	2.648093899765015E+02
1.933033033033038E-01	2.639396398696899E+02
1.943943943943948E-01	2.630698897628783E+02
1.954854854854859E-01	2.622001396560669E+02
1.965765765765770E-01	2.613151307754516E+02
1.976676676676681E-01	2.604453806686402E+02
1.987587587587592E-01	2.595603717880249E+02
1.998498498498503E-01	2.586906216812133E+02
2.009409409409414E-01	2.578056128005982E+02
2.020320320320325E-01	2.569206039199829E+02
2.031231231231236E-01	2.560355950393676E+02
2.042142142142147E-01	2.551505861587524E+02
2.053053053053058E-01	2.542503185043335E+02
2.063963963963969E-01	2.533653096237182E+02
2.074874874874880E-01	2.524650419692993E+02
2.085785785785791E-01	2.515800330886841E+02
2.096696696696702E-01	2.506797654342651E+02
2.107607607607613E-01	2.497794977798462E+02
2.118518518518524E-01	2.488792301254272E+02
2.129429429429435E-01	2.479789624710083E+02
2.140340340340346E-01	2.470634360427857E+02
2.151251251251257E-01	2.461631683883667E+02
2.162162162162168E-01	2.452476419601441E+02
2.173073073073079E-01	2.443473743057251E+02
2.183983983983989E-01	2.434318478775024E+02
2.194894894894900E-01	2.425163214492798E+02
2.205805805805811E-01	2.416007950210571E+02
2.216716716716722E-01	2.406700098190307E+02
2.227627627627633E-01	2.397544833908081E+02
2.238538538538544E-01	2.388389569625854E+02
2.249449449449455E-01	2.379081717605591E+02
2.260360360360366E-01	2.369773865585327E+02
2.271271271271277E-01	2.360466013565064E+02
2.282182182182188E-01	2.351158161544799E+02
2.293093093093099E-01	2.341850309524536E+02
2.304004004004010E-01	2.332542457504272E+02
2.314914914914921E-01	2.323082017745971E+02
2.325825825825832E-01	2.313621577987671E+02
2.336736736736743E-01	2.304313725967407E+02
2.347647647647654E-01	2.294853286209106E+02
2.358558558558565E-01	2.285392846450806E+02
2.369469469469476E-01	2.275779818954467E+02
2.380380380380387E-01	2.266319379196167E+02
2.391291291291298E-01	2.256706351699829E+02
2.402202202202209E-01	2.247245911941528E+02
2.413113113113119E-01	2.237632884445190E+02
2.424024024024030E-01	2.228019856948852E+02
2.434934934934941E-01	2.218406829452514E+02
2.445845845845852E-01	2.208793801956177E+02
2.456756756756763E-01	2.199028186721802E+02
2.467667667667674E-01	2.189415159225464E+02
2.478578578578585E-01	2.179649543991089E+02
2.489489489489496E-01	2.169883928756714E+02
2.500400400400407E-01	2.160118313522339E+02
2.511311311311318E-01	2.150352698287964E+02
2.522222222222228E-01	2.140434495315552E+02
2.533133133133139E-01	2.130668880081177E+02
2.544044044044050E-01	2.120750677108765E+02
2.554954954954960E-01	2.110832474136353E+02
2.565865865865871E-01	2.100914271163940E+02
2.576776776776782E-01	2.090996068191528E+02
2.587687687687693E-01	2.081077865219116E+02
2.598598598598603E-01	2.071007074508667E+02
2.609509509509514E-01	2.061088871536255E+02
2.620420420420425E-01	2.050979933891296E+02
2.631331331331335E-01	2.040909143180847E+02
2.642242242242246E-01	2.030838352470398E+02
2.653153153153157E-01	2.020691267890930E+02
2.664064064064067E-01	2.010544183311462E+02
2.674974974974978E-01	2.000397098731995E+02
2.685885885885889E-01	1.990173720283508E+02
2.696796796796799E-01	1.979950341835022E+02
2.707707707707710E-01	1.969726963386535E+02
2.718618618618621E-01	1.959427291069031E+02
2.729529529529531E-01	1.949127618751526E+02
2.740440440440442E-01	1.938827946434021E+02
2.751351351351353E-01	1.928451980247497E+02
2.762262262262263E-01	1.918076014060974E+02
2.773173173173174E-01	1.907700047874450E+02
2.784084084084085E-01	1.897324081687927E+02
2.794994994994995E-01	1.886871821632385E+02
2.805905905905906E-01	1.876343267707825E+02
2.816816816816817E-01	1.865891007652282E+02
2.827727727727727E-01	1.855362453727722E+02
2.838638638638638E-01	1.844833899803162E+02
2.849549549549549E-01	1.834229052009582E+02
2.860460460460459E-01	1.823624204216003E+02
2.871371371371370E-01	1.813019356422424E+02
2.882282282282281E-01	1.802338214759827E+02
2.893193193193191E-01	1.791657073097229E+02
2.904104104104102E-01	1.780975931434631E+02
2.915015015015013E-01	1.770294789772034E+02
2.925925925925923E-01	1.759537354240418E+02
2.936836836836834E-01	1.748779918708801E+02
2.947747747747745E-01	1.737946189308166E+02
2.958658658658656E-01	1.727188753776550E+02
2.969569569569566E-01	1.716355024375915E+02
2.980480480480477E-01	1.705445001106262E+02
2.991391391391388E-01	1.694611271705627E+02
3.002302302302298E-01	1.683701248435974E+02
3.013213213213209E-01	1.672714931297302E+02
3.024124124124120E-01	1.661804908027649E+02
3.035035035035030E-01	1.650818590888977E+02
3.045945945945941E-01	1.639832273750305E+02
3.056856856856852E-01	1.628845956611633E+02
3.067767767767762E-01	1.617783345603943E+02
3.078678678678673E-01	1.606797028465271E+02
3.089589589589584E-01	1.595734417457580E+02
3.100500500500494E-01	1.584595512580871E+02
3.111411411411405E-01	1.573532901573181E+02
3.122322322322316E-01	1.562393996696472E+02
3.133233233233226E-01	1.551255091819763E+02
3.144144144144137E-01	1.540116186943055E+02
3.155055055055048E-01	1.528977282066346E+02
3.165965965965958E-01	1.517838377189636E+02
3.176876876876869E-01	1.506623178443909E+02
3.187787787787780E-01	1.495407979698181E+02
3.198698698698690E-01	1.484192780952454E+02
3.209609609609601E-01	1.472977582206726E+02
3.220520520520512E-01	1.461762383460999E+02
3.231431431431422E-01	1.450547184715271E+02
3.242342342342333E-01	1.439331985969543E+02
3.253253253253244E-01	1.428040493354797E+02
3.264164164164154E-01	1.416825294609070E+02
3.275075075075065E-01	1.405610095863343E+02
3.285985985985976E-01	1.394318603248597E+02
3.296896896896886E-01	1.383103404502869E+02
3.307807807807797E-01	1.371811911888122E+02
3.318718718718708E-01	1.360596713142395E+02
3.329629629629619E-01	1.349305220527649E+02
3.340540540540529E-01	1.338090021781921E+02
3.351451451451440E-01	1.326874823036194E+02
3.362362362362351E-01	1.315659624290466E+02
3.373273273273261E-01	1.304444425544739E+02
3.384184184184172E-01	1.293229226799011E+02
3.395095095095083E-01	1.282014028053284E+02
3.406006006005993E-01	1.270875123176575E+02
3.416916916916904E-01	1.259736218299866E+02
3.427827827827815E-01	1.248597313423157E+02
3.438738738738725E-01	1.237458408546448E+02
3.449649649649636E-01	1.226395797538757E+02
3.460560560560547E-01	1.215333186531067E+02
3.471471471471457E-01	1.204270575523376E+02
3.482382382382368E-01	1.193284258384705E+02
3.493293293293279E-01	1.182297941246033E+02
3.504204204204189E-01	1.171387917976379E+02
3.515115115115100E-01	1.160477894706726E+02
3.526026026026011E-01	1.149644165306091E+02
3.536936936936921E-01	1.138810435905456E+02
3.547847847847832E-01	1.128053000373840E+02
3.558758758758743E-01	1.117295564842224E+02
3.569669669669653E-01	1.106614423179626E+02
3.580580580580564E-01	1.095933281517029E+02
3.591491491491475E-01	1.085404727592468E+02
3.602402402402385E-01	1.074876173667908E+02
3.613313313313296E-01	1.064347619743347E+02
3.624224224224207E-01	1.053971653556824E+02
3.635135135135117E-01	1.043595687370300E+02
3.646046046046028E-01	1.033296015052796E+02
3.656956956956939E-01	1.023072636604309E+02
3.667867867867849E-01	1.012925552024841E+02
3.678778778778760E-01	1.002854761314392E+02
3.689689689689671E-01	9.928602644729614E+01
3.700600600600581E-01	9.828657676315308E+01
3.711511511511492E-01	9.730238585281373E+01
3.722422422422403E-01	9.632582432937623E+01
3.733333333333314E-01	9.534926280593874E+01
3.744244244244224E-01	9.438796005630493E+01
3.755155155155135E-01	9.343428669357300E+01
3.766066066066046E-01	9.248824271774291E+01
3.776976976976956E-01	9.154982812881468E+01
3.787887887887867E-01	9.061904292678832E+01
3.798798798798778E-01	8.969588711166381E+01
3.809709709709688E-01	8.878799007034303E+01
3.820620620620599E-01	8.788772241592409E+01
3.831531531531510E-01	8.699508414840699E+01
3.842442442442420E-01	8.611007526779174E+01
3.853353353353331E-01	8.523269577407839E+01
3.864264264264242E-01	8.437057505416868E+01
3.875175175175152E-01	8.351608372116087E+01
3.886086086086063E-01	8.266922177505495E+01
3.896996996996974E-01	8.182998921585084E+01
3.907907907907884E-01	8.100601543045045E+01
3.918818818818795E-01	8.018967103195192E+01
3.929729729729706E-01	7.938095602035523E+01
3.940640640640616E-01	7.857987039566041E+01
3.951551551551527E-01	7.779404354476929E+01
3.962462462462438E-01	7.701584608078002E+01
3.973373373373348E-01	7.624527800369263E+01
3.984284284284259E-01	7.548996870040892E+01
3.995195195195170E-01	7.474228878402710E+01
4.006106106106080E-01	7.400223825454714E+01
4.017017017016991E-01	7.327744649887086E+01
4.027927927927902E-01	7.255265474319461E+01
4.038838838838812E-01	7.184312176132204E+01
4.049749749749723E-01	7.114884755325318E+01
4.060660660660634E-01	7.045457334518431E+01
4.071571571571544E-01	6.977555791091920E+01
4.082482482482455E-01	6.910417186355592E+01
4.093393393393366E-01	6.844041520309449E+01
4.104304304304277E-01	6.778428792953491E+01
4.115215215215187E-01	6.714341942977904E+01
4.126126126126098E-01	6.651018031692507E+01
4.137037037037009E-01	6.588457059097291E+01
4.147947947947919E-01	6.526659025192259E+01
4.158858858858830E-01	6.465623929977417E+01
4.169769769769741E-01	6.406114712142943E+01
4.180680680680651E-01	6.346605494308472E+01
4.191591591591562E-01	6.288622153854370E+01
4.202502502502473E-01	6.231401752090454E+01
4.213413413413383E-01	6.174944289016724E+01
4.224324324324294E-01	6.119249764633178E+01
4.235235235235205E-01	6.064318178939819E+01
4.246146146146115E-01	6.010149531936646E+01
4.257057057057026E-01	5.956743823623657E+01
4.267967967967937E-01	5.904101054000854E+01
4.278878878878847E-01	5.852221223068236E+01
4.289789789789758E-01	5.801104330825805E+01
4.300700700700669E-01	5.750750377273560E+01
4.311611611611579E-01	5.701159362411498E+01
4.322522522522490E-01	5.652331286239623E+01
4.333433433433401E-01	5.604266148757934E+01
4.344344344344311E-01	5.556963949966430E+01
4.355255255255222E-01	5.510424689865112E+01
4.366166166166133E-01	5.464648368453978E+01
4.377077077077043E-01	5.418872047042846E+01
4.387987987987954E-01	5.374621603012085E+01
4.398898898898865E-01	5.330371158981323E+01
4.409809809809775E-01	5.286883653640746E+01
4.420720720720686E-01	5.243968352317809E+01
4.431631631631597E-01	5.202006724357604E+01
4.442542542542507E-01	5.160426565742492E+01
4.453453453453418E-01	5.119227876472473E+01
4.464364364364329E-01	5.078792125892639E+01
4.475275275275239E-01	5.039119314002991E+01
4.486186186186150E-01	4.999827971458434E+01
4.497097097097061E-01	4.961299567604065E+01
4.508008008007972E-01	4.923152633094787E+01
4.518918918918882E-01	4.885387167930602E+01
4.529829829829793E-01	4.848384641456605E+01
4.540740740740704E-01	4.811763584327697E+01
4.551651651651614E-01	4.775523996543883E+01
4.562562562562525E-01	4.740047347450256E+01
4.573473473473436E-01	4.704952167701721E+01
4.584384384384346E-01	4.670619926643371E+01
4.595295295295257E-01	4.636287685585022E+01
4.606206206206168E-01	4.602718383216858E+01
4.617117117117078E-01	4.569530550193787E+01
4.628028028027989E-01	4.536724186515806E+01
4.638938938938900E-01	4.504680761528014E+01
4.649849849849810E-01	4.472637336540221E+01
4.660760760760721E-01	4.441356850242614E+01
4.671671671671632E-01	4.410076363945007E+01
4.682582582582542E-01	4.379558816337584E+01
4.693493493493453E-01	4.349422738075256E+01
4.704404404404364E-01	4.319668129158021E+01
4.715315315315274E-01	4.290294989585875E+01
4.726226226226185E-01	4.261303319358825E+01
4.737137137137096E-01	4.232693118476868E+01
4.748048048048006E-01	4.204464386940003E+01
4.758958958958917E-01	4.176617124748229E+01
4.769869869869828E-01	4.148769862556458E+01
4.780780780780738E-01	4.121685539054870E+01
4.791691691691649E-01	4.094982684898376E+01
4.802602602602560E-01	4.068279830741882E+01
4.813513513513470E-01	4.042339915275574E+01
4.824424424424381E-01	4.016399999809265E+01
4.835335335335292E-01	3.990841553688048E+01
4.846246246246202E-01	3.965664576911927E+01
4.857157157157113E-01	3.940869069480895E+01
4.868068068068024E-01	3.916455031394958E+01
4.878978978978935E-01	3.892040993309020E+01
4.889889889889845E-01	3.868008424568177E+01
4.900800800800756E-01	3.844357325172425E+01
4.911711711711667E-01	3.821087695121766E+01
4.922622622622577E-01	3.797818065071107E+01
4.933533533533488E-01	3.774929904365540E+01
4.944444444444399E-01	3.752423213005065E+01
4.955355355355309E-01	3.730297990989685E+01
4.966266266266220E-01	3.708172768974303E+01
4.977177177177131E-01	3.686429016304017E+01
4.988088088088041E-01	3.665066732978821E+01
4.998998998998952E-01	3.643704449653626E+01
5.009909909909863E-01	3.622723635673522E+01
5.020820820820774E-01	3.601742821693420E+01
5.031731731731685E-01	3.581143477058410E+01
5.042642642642595E-01	3.560925601768493E+01
