# barionic density, mass
1.034034034034034E-02	9.175421980590821E+02
1.068068068068068E-02	9.168097764282228E+02
1.102102102102102E-02	9.160773547973635E+02
1.136136136136136E-02	9.153449331665040E+02
1.170170170170170E-02	9.146125115356446E+02
1.204204204204204E-02	9.138800899047852E+02
1.238238238238239E-02	9.131476682739259E+02
1.272272272272273E-02	9.124152466430664E+02
1.306306306306307E-02	9.116828250122070E+02
1.340340340340341E-02	9.109504033813477E+02
1.374374374374375E-02	9.102179817504883E+02
1.408408408408409E-02	9.094855601196290E+02
1.442442442442443E-02	9.087531384887697E+02
1.476476476476477E-02	9.080207168579102E+02
1.510510510510511E-02	9.076545060424804E+02
1.544544544544545E-02	9.069220844116211E+02
1.578578578578579E-02	9.061896627807618E+02
1.612612612612613E-02	9.054572411499024E+02
1.646646646646647E-02	9.047248195190431E+02
1.680680680680681E-02	9.039923978881836E+02
1.714714714714715E-02	9.032599762573242E+02
1.748748748748749E-02	9.025275546264648E+02
1.782782782782784E-02	9.017951329956055E+02
1.816816816816818E-02	9.010627113647462E+02
1.850850850850852E-02	9.003302897338868E+02
1.884884884884886E-02	8.995978681030274E+02
1.918918918918920E-02	8.992316572875977E+02
1.952952952952954E-02	8.984992356567383E+02
1.986986986986988E-02	8.977668140258789E+02
2.021021021021022E-02	8.970343923950196E+02
2.055055055055056E-02	8.963019707641603E+02
2.089089089089090E-02	8.955695491333009E+02
2.123123123123124E-02	8.948371275024415E+02
2.157157157157158E-02	8.941047058715820E+02
2.191191191191192E-02	8.933722842407227E+02
2.225225225225226E-02	8.926398626098634E+02
2.259259259259261E-02	8.919074409790040E+02
2.293293293293295E-02	8.915412301635744E+02
2.327327327327329E-02	8.908088085327149E+02
2.361361361361363E-02	8.900763869018555E+02
2.395395395395397E-02	8.893439652709961E+02
2.429429429429431E-02	8.886115436401368E+02
2.463463463463465E-02	8.878791220092775E+02
2.497497497497499E-02	8.871467003784181E+02
2.531531531531533E-02	8.864142787475587E+02
2.565565565565567E-02	8.856818571166992E+02
2.599599599599601E-02	8.849494354858399E+02
2.633633633633635E-02	8.842170138549806E+02
2.667667667667669E-02	8.838508030395509E+02
2.701701701701703E-02	8.831183814086916E+02
2.735735735735738E-02	8.823859597778322E+02
2.769769769769772E-02	8.816535381469728E+02
2.803803803803806E-02	8.809211165161133E+02
2.837837837837840E-02	8.801886948852540E+02
2.871871871871874E-02	8.794562732543947E+02
2.905905905905908E-02	8.787238516235353E+02
2.939939939939942E-02	8.779914299926760E+02
2.973973973973976E-02	8.772590083618165E+02
3.008008008008010E-02	8.768927975463868E+02
3.042042042042044E-02	8.761603759155274E+02
3.076076076076078E-02	8.754279542846681E+02
3.110110110110112E-02	8.746955326538088E+02
3.144144144144146E-02	8.739631110229494E+02
3.178178178178180E-02	8.732306893920900E+02
3.212212212212214E-02	8.724982677612305E+02
3.246246246246248E-02	8.717658461303712E+02
3.280280280280282E-02	8.710334244995119E+02
3.314314314314316E-02	8.706672136840822E+02
3.348348348348350E-02	8.699347920532228E+02
3.382382382382385E-02	8.692023704223635E+02
3.416416416416419E-02	8.684699487915041E+02
3.450450450450453E-02	8.677375271606446E+02
3.484484484484487E-02	8.670051055297853E+02
3.518518518518521E-02	8.662726838989259E+02
3.552552552552555E-02	8.655402622680665E+02
3.586586586586589E-02	8.648078406372071E+02
3.620620620620623E-02	8.644416298217774E+02
3.654654654654657E-02	8.637092081909180E+02
3.688688688688691E-02	8.629767865600587E+02
3.722722722722725E-02	8.622443649291994E+02
3.756756756756759E-02	8.615119432983399E+02
3.790790790790793E-02	8.607795216674805E+02
3.824824824824827E-02	8.600471000366211E+02
3.858858858858862E-02	8.593146784057618E+02
3.892892892892896E-02	8.589484675903321E+02
3.926926926926930E-02	8.582160459594728E+02
3.960960960960964E-02	8.574836243286135E+02
3.994994994994998E-02	8.567512026977540E+02
4.029029029029032E-02	8.560187810668946E+02
4.063063063063066E-02	8.552863594360352E+02
4.097097097097100E-02	8.545539378051759E+02
4.131131131131134E-02	8.538215161743165E+02
4.165165165165168E-02	8.530890945434570E+02
4.199199199199202E-02	8.527228837280273E+02
4.233233233233236E-02	8.519904620971680E+02
4.267267267267270E-02	8.512580404663087E+02
4.301301301301304E-02	8.505256188354493E+02
4.335335335335339E-02	8.497931972045899E+02
4.369369369369373E-02	8.490607755737304E+02
4.403403403403407E-02	8.483283539428711E+02
4.437437437437441E-02	8.475959323120118E+02
4.471471471471475E-02	8.472297214965821E+02
4.505505505505509E-02	8.464972998657228E+02
4.539539539539543E-02	8.457648782348634E+02
4.573573573573577E-02	8.450324566040040E+02
4.607607607607611E-02	8.443000349731445E+02
4.641641641641645E-02	8.435676133422852E+02
4.675675675675679E-02	8.428351917114259E+02
4.709709709709713E-02	8.421027700805664E+02
4.743743743743747E-02	8.417365592651366E+02
4.777777777777781E-02	8.410041376342773E+02
4.811811811811816E-02	8.402717160034180E+02
4.845845845845850E-02	8.395392943725586E+02
4.879879879879884E-02	8.388068727416993E+02
4.913913913913918E-02	8.380744511108398E+02
4.947947947947952E-02	8.373420294799804E+02
4.981981981981986E-02	8.369758186645507E+02
5.016016016016020E-02	8.362433970336914E+02
5.050050050050054E-02	8.355109754028321E+02
5.084084084084088E-02	8.347785537719727E+02
5.118118118118122E-02	8.340461321411134E+02
5.152152152152156E-02	8.333137105102539E+02
5.186186186186190E-02	8.325812888793945E+02
5.220220220220224E-02	8.318488672485352E+02
5.254254254254258E-02	8.314826564331055E+02
5.288288288288293E-02	8.307502348022462E+02
5.322322322322327E-02	8.300178131713868E+02
5.356356356356361E-02	8.292853915405274E+02
5.390390390390395E-02	8.285529699096679E+02
5.424424424424429E-02	8.278205482788086E+02
5.458458458458463E-02	8.270881266479493E+02
5.492492492492497E-02	8.267219158325196E+02
5.526526526526531E-02	8.259894942016602E+02
5.560560560560565E-02	8.252570725708009E+02
5.594594594594599E-02	8.245246509399415E+02
5.628628628628633E-02	8.237922293090820E+02
5.662662662662667E-02	8.230598076782227E+02
5.696696696696701E-02	8.223273860473633E+02
5.730730730730735E-02	8.219611752319337E+02
5.764764764764770E-02	8.212287536010743E+02
5.798798798798804E-02	8.204963319702149E+02
5.832832832832838E-02	8.197639103393554E+02
5.866866866866872E-02	8.190314887084961E+02
5.900900900900906E-02	8.182990670776368E+02
5.934934934934940E-02	8.175666454467774E+02
5.968968968968974E-02	8.172004346313478E+02
6.003003003003008E-02	8.164680130004884E+02
6.037037037037042E-02	8.157355913696290E+02
6.071071071071076E-02	8.150031697387695E+02
6.105105105105110E-02	8.142707481079102E+02
6.139139139139144E-02	8.135383264770509E+02
6.173173173173178E-02	8.128059048461915E+02
6.207207207207213E-02	8.124396940307619E+02
6.241241241241247E-02	8.117072723999024E+02
6.275275275275280E-02	8.109748507690430E+02
6.309309309309313E-02	8.102424291381836E+02
6.343343343343347E-02	8.095100075073243E+02
6.377377377377380E-02	8.087775858764650E+02
6.411411411411413E-02	8.080451642456056E+02
6.445445445445447E-02	8.076789534301760E+02
6.479479479479480E-02	8.069465317993165E+02
6.513513513513514E-02	8.062141101684571E+02
6.547547547547547E-02	8.054816885375977E+02
6.581581581581580E-02	8.047492669067384E+02
6.615615615615614E-02	8.040168452758791E+02
6.649649649649647E-02	8.032844236450197E+02
6.683683683683680E-02	8.029182128295899E+02
6.717717717717714E-02	8.021857911987305E+02
6.751751751751747E-02	8.014533695678712E+02
6.785785785785781E-02	8.007209479370118E+02
6.819819819819814E-02	7.999885263061525E+02
6.853853853853847E-02	7.992561046752932E+02
6.887887887887881E-02	7.985236830444337E+02
6.921921921921914E-02	7.981574722290040E+02
6.955955955955948E-02	7.974250505981446E+02
6.989989989989981E-02	7.966926289672853E+02
7.024024024024014E-02	7.959602073364259E+02
7.058058058058048E-02	7.952277857055665E+02
7.092092092092081E-02	7.944953640747070E+02
7.126126126126114E-02	7.941291532592774E+02
7.160160160160148E-02	7.933967316284180E+02
7.194194194194181E-02	7.926643099975587E+02
7.228228228228215E-02	7.919318883666994E+02
7.262262262262248E-02	7.911994667358399E+02
7.296296296296281E-02	7.904670451049805E+02
7.330330330330315E-02	7.897346234741211E+02
7.364364364364348E-02	7.893684126586915E+02
7.398398398398381E-02	7.886359910278321E+02
7.432432432432415E-02	7.879035693969728E+02
7.466466466466448E-02	7.871711477661134E+02
7.500500500500482E-02	7.864387261352540E+02
7.534534534534515E-02	7.857063045043946E+02
7.568568568568548E-02	7.853400936889649E+02
7.602602602602582E-02	7.846076720581055E+02
7.636636636636615E-02	7.838752504272461E+02
7.670670670670648E-02	7.831428287963867E+02
7.704704704704682E-02	7.824104071655273E+02
7.738738738738715E-02	7.816779855346680E+02
7.772772772772749E-02	7.809455639038086E+02
7.806806806806782E-02	7.805793530883790E+02
7.840840840840815E-02	7.798469314575196E+02
7.874874874874849E-02	7.791145098266602E+02
7.908908908908882E-02	7.783820881958007E+02
7.942942942942915E-02	7.776496665649414E+02
7.976976976976949E-02	7.769172449340821E+02
8.011011011010982E-02	7.765510341186524E+02
8.045045045045016E-02	7.758186124877931E+02
8.079079079079049E-02	7.750861908569336E+02
8.113113113113082E-02	7.743537692260742E+02
8.147147147147116E-02	7.736213475952148E+02
8.181181181181149E-02	7.728889259643555E+02
8.215215215215182E-02	7.725227151489258E+02
8.249249249249216E-02	7.717902935180664E+02
8.283283283283249E-02	7.710578718872069E+02
8.317317317317283E-02	7.703254502563476E+02
8.351351351351316E-02	7.695930286254883E+02
8.385385385385349E-02	7.688606069946289E+02
8.419419419419383E-02	7.681281853637696E+02
8.453453453453416E-02	7.677619745483398E+02
8.487487487487450E-02	7.670295529174804E+02
8.521521521521483E-02	7.662971312866210E+02
8.555555555555516E-02	7.655647096557617E+02
8.589589589589550E-02	7.648322880249024E+02
8.623623623623583E-02	7.640998663940430E+02
8.657657657657616E-02	7.637336555786134E+02
8.691691691691650E-02	7.630012339477539E+02
8.725725725725683E-02	7.622688123168945E+02
8.759759759759717E-02	7.615363906860351E+02
8.793793793793750E-02	7.608039690551758E+02
8.827827827827783E-02	7.600715474243165E+02
8.861861861861817E-02	7.597053366088868E+02
8.895895895895850E-02	7.589729149780273E+02
8.929929929929883E-02	7.582404933471679E+02
8.963963963963917E-02	7.575080717163086E+02
8.997997997997950E-02	7.567756500854492E+02
9.032032032031984E-02	7.560432284545899E+02
9.066066066066017E-02	7.556770176391602E+02
9.100100100100050E-02	7.549445960083009E+02
9.134134134134084E-02	7.542121743774414E+02
9.168168168168117E-02	7.534797527465820E+02
9.202202202202150E-02	7.527473311157227E+02
9.236236236236184E-02	7.520149094848633E+02
9.270270270270217E-02	7.516486986694337E+02
9.304304304304251E-02	7.509162770385743E+02
9.338338338338284E-02	7.501838554077149E+02
9.372372372372317E-02	7.494514337768554E+02
9.406406406406351E-02	7.487190121459961E+02
9.440440440440384E-02	7.479865905151368E+02
9.474474474474417E-02	7.476203796997071E+02
9.508508508508451E-02	7.468879580688478E+02
9.542542542542484E-02	7.461555364379884E+02
9.576576576576518E-02	7.454231148071290E+02
9.610610610610551E-02	7.446906931762695E+02
9.644644644644584E-02	7.439582715454102E+02
9.678678678678618E-02	7.432258499145508E+02
9.712712712712651E-02	7.428596390991212E+02
9.746746746746685E-02	7.421272174682618E+02
9.780780780780718E-02	7.413947958374024E+02
9.814814814814751E-02	7.406623742065429E+02
9.848848848848785E-02	7.399299525756836E+02
9.882882882882818E-02	7.391975309448243E+02
9.916916916916851E-02	7.388313201293946E+02
9.950950950950885E-02	7.380988984985353E+02
9.984984984984918E-02	7.373664768676759E+02
1.001901901901895E-01	7.366340552368165E+02
1.005305305305298E-01	7.359016336059570E+02
1.008708708708702E-01	7.351692119750977E+02
1.012112112112105E-01	7.348030011596680E+02
1.015515515515509E-01	7.340705795288087E+02
1.018918918918912E-01	7.333381578979494E+02
1.022322322322315E-01	7.326057362670899E+02
1.025725725725719E-01	7.318733146362305E+02
1.029129129129122E-01	7.311408930053711E+02
1.032532532532525E-01	7.307746821899415E+02
1.035935935935929E-01	7.300422605590821E+02
1.039339339339332E-01	7.293098389282228E+02
1.042742742742735E-01	7.285774172973635E+02
1.046146146146139E-01	7.278449956665040E+02
1.049549549549542E-01	7.271125740356446E+02
1.052952952952945E-01	7.267463632202149E+02
1.056356356356349E-01	7.260139415893556E+02
1.059759759759752E-01	7.252815199584961E+02
1.063163163163155E-01	7.245490983276367E+02
1.066566566566559E-01	7.238166766967773E+02
1.069969969969962E-01	7.230842550659180E+02
1.073373373373365E-01	7.227180442504883E+02
1.076776776776769E-01	7.219856226196290E+02
1.080180180180172E-01	7.212532009887697E+02
1.083583583583575E-01	7.205207793579102E+02
1.086986986986979E-01	7.197883577270508E+02
1.090390390390382E-01	7.190559360961914E+02
1.093793793793785E-01	7.186897252807618E+02
1.097197197197189E-01	7.179573036499024E+02
1.100600600600592E-01	7.172248820190431E+02
1.104004004003995E-01	7.164924603881836E+02
1.107407407407399E-01	7.157600387573242E+02
1.110810810810802E-01	7.150276171264649E+02
1.114214214214205E-01	7.146614063110352E+02
1.117617617617609E-01	7.139289846801759E+02
1.121021021021012E-01	7.131965630493164E+02
1.124424424424415E-01	7.124641414184570E+02
1.127827827827819E-01	7.117317197875976E+02
1.131231231231222E-01	7.109992981567383E+02
1.134634634634625E-01	7.106330873413086E+02
1.138038038038029E-01	7.099006657104493E+02
1.141441441441432E-01	7.091682440795898E+02
1.144844844844835E-01	7.084358224487304E+02
1.148248248248239E-01	7.077034008178711E+02
1.151651651651642E-01	7.069709791870117E+02
1.155055055055045E-01	7.066047683715821E+02
1.158458458458449E-01	7.058723467407227E+02
1.161861861861852E-01	7.051399251098634E+02
1.165265265265255E-01	7.044075034790039E+02
1.168668668668659E-01	7.036750818481445E+02
1.172072072072062E-01	7.029426602172852E+02
1.175475475475465E-01	7.025764494018555E+02
1.178878878878869E-01	7.018440277709960E+02
1.182282282282272E-01	7.011116061401366E+02
1.185685685685675E-01	7.003791845092773E+02
1.189089089089079E-01	6.996467628784179E+02
1.192492492492482E-01	6.989143412475586E+02
1.195895895895885E-01	6.981819196166992E+02
1.199299299299289E-01	6.978157088012696E+02
1.202702702702692E-01	6.970832871704101E+02
1.206106106106095E-01	6.963508655395507E+02
1.209509509509499E-01	6.956184439086913E+02
1.212912912912902E-01	6.948860222778320E+02
1.216316316316305E-01	6.941536006469727E+02
1.219719719719709E-01	6.937873898315430E+02
1.223123123123112E-01	6.930549682006836E+02
1.226526526526515E-01	6.923225465698241E+02
1.229929929929919E-01	6.915901249389648E+02
1.233333333333322E-01	6.908577033081054E+02
1.236736736736725E-01	6.901252816772461E+02
1.240140140140129E-01	6.897590708618164E+02
1.243543543543532E-01	6.890266492309571E+02
1.246946946946935E-01	6.882942276000977E+02
1.250350350350339E-01	6.875618059692382E+02
1.253753753753742E-01	6.868293843383789E+02
1.257157157157145E-01	6.860969627075195E+02
1.260560560560549E-01	6.857307518920899E+02
1.263963963963952E-01	6.849983302612305E+02
1.267367367367356E-01	6.842659086303711E+02
1.270770770770759E-01	6.835334869995116E+02
1.274174174174162E-01	6.828010653686523E+02
1.277577577577566E-01	6.820686437377930E+02
1.280980980980969E-01	6.813362221069336E+02
1.284384384384372E-01	6.809700112915040E+02
1.287787787787776E-01	6.802375896606446E+02
1.291191191191179E-01	6.795051680297852E+02
1.294594594594582E-01	6.787727463989257E+02
1.297997997997986E-01	6.780403247680664E+02
1.301401401401389E-01	6.773079031372071E+02
1.304804804804792E-01	6.769416923217774E+02
1.308208208208196E-01	6.762092706909181E+02
1.311611611611599E-01	6.754768490600586E+02
1.315015015015002E-01	6.747444274291992E+02
1.318418418418406E-01	6.740120057983398E+02
1.321821821821809E-01	6.732795841674805E+02
1.325225225225212E-01	6.725471625366212E+02
1.328628628628616E-01	6.721809517211915E+02
1.332032032032019E-01	6.714485300903322E+02
1.335435435435422E-01	6.707161084594727E+02
1.338838838838826E-01	6.699836868286133E+02
1.342242242242229E-01	6.692512651977539E+02
1.345645645645632E-01	6.685188435668946E+02
1.349049049049036E-01	6.681526327514649E+02
1.352452452452439E-01	6.674202111206056E+02
1.355855855855842E-01	6.666877894897461E+02
1.359259259259246E-01	6.659553678588867E+02
1.362662662662649E-01	6.652229462280274E+02
1.366066066066052E-01	6.644905245971680E+02
1.369469469469456E-01	6.637581029663087E+02
1.372872872872859E-01	6.633918921508790E+02
1.376276276276262E-01	6.626594705200197E+02
1.379679679679666E-01	6.619270488891602E+02
1.383083083083069E-01	6.611946272583008E+02
1.386486486486472E-01	6.604622056274414E+02
1.389889889889876E-01	6.597297839965821E+02
1.393293293293279E-01	6.593635731811524E+02
1.396696696696682E-01	6.586311515502931E+02
1.400100100100086E-01	6.578987299194337E+02
1.403503503503489E-01	6.571663082885742E+02
1.406906906906892E-01	6.564338866577149E+02
1.410310310310296E-01	6.557014650268555E+02
1.413713713713699E-01	6.549690433959961E+02
1.417117117117102E-01	6.546028325805664E+02
1.420520520520506E-01	6.538704109497070E+02
1.423923923923909E-01	6.531379893188476E+02
1.427327327327312E-01	6.524055676879883E+02
1.430730730730716E-01	6.516731460571290E+02
1.434134134134119E-01	6.509407244262696E+02
1.437537537537522E-01	6.502083027954102E+02
1.440940940940926E-01	6.498420919799804E+02
1.444344344344329E-01	6.491096703491211E+02
1.447747747747732E-01	6.483772487182617E+02
1.451151151151136E-01	6.476448270874024E+02
1.454554554554539E-01	6.469124054565431E+02
1.457957957957942E-01	6.461799838256836E+02
1.461361361361346E-01	6.454475621948242E+02
1.464764764764749E-01	6.450813513793945E+02
1.468168168168152E-01	6.443489297485352E+02
1.471571571571556E-01	6.436165081176758E+02
1.474974974974959E-01	6.428840864868165E+02
1.478378378378362E-01	6.421516648559572E+02
1.481781781781766E-01	6.414192432250977E+02
1.485185185185169E-01	6.406868215942383E+02
1.488588588588572E-01	6.403206107788086E+02
1.491991991991976E-01	6.395881891479493E+02
1.495395395395379E-01	6.388557675170899E+02
1.498798798798782E-01	6.381233458862306E+02
1.502202202202186E-01	6.373909242553711E+02
1.505605605605589E-01	6.366585026245117E+02
1.509009009008992E-01	6.359260809936524E+02
1.512412412412396E-01	6.355598701782227E+02
1.515815815815799E-01	6.348274485473634E+02
1.519219219219202E-01	6.340950269165040E+02
1.522622622622606E-01	6.333626052856447E+02
1.526026026026009E-01	6.326301836547852E+02
1.529429429429413E-01	6.319893147277833E+02
1.532832832832816E-01	6.312568930969239E+02
1.536236236236219E-01	6.305244714660646E+02
1.539639639639623E-01	6.299751552429200E+02
1.543043043043026E-01	6.292427336120606E+02
1.546446446446429E-01	6.285103119812013E+02
1.549849849849833E-01	6.277778903503417E+02
1.553253253253236E-01	6.272285741271974E+02
1.556656656656639E-01	6.264961524963380E+02
1.560060060060043E-01	6.257637308654787E+02
1.563463463463446E-01	6.250313092346194E+02
1.566866866866849E-01	6.244819930114747E+02
1.570270270270253E-01	6.237495713806153E+02
1.573673673673656E-01	6.230171497497558E+02
1.577077077077059E-01	6.224678335266115E+02
1.580480480480463E-01	6.217354118957521E+02
1.583883883883866E-01	6.210029902648928E+02
1.587287287287269E-01	6.202705686340335E+02
1.590690690690673E-01	6.197212524108888E+02
1.594094094094076E-01	6.189888307800293E+02
1.597497497497479E-01	6.182564091491699E+02
1.600900900900883E-01	6.175239875183106E+02
1.604304304304286E-01	6.167915658874513E+02
1.607707707707689E-01	6.162422496643069E+02
1.611111111111093E-01	6.155098280334474E+02
1.614514514514496E-01	6.147774064025880E+02
1.617917917917899E-01	6.140449847717287E+02
1.621321321321303E-01	6.134956685485840E+02
1.624724724724706E-01	6.127632469177247E+02
1.628128128128109E-01	6.120308252868654E+02
1.631531531531513E-01	6.112984036560060E+02
1.634934934934916E-01	6.107490874328614E+02
1.638338338338319E-01	6.100166658020021E+02
1.641741741741723E-01	6.092842441711427E+02
