# barionic density, pressure
1.034034034034034E-02	-1.767997712539682E-02
1.068068068068068E-02	-1.934943644511122E-02
1.102102102102102E-02	-2.108947138196982E-02
1.136136136136136E-02	-2.289995037853032E-02
1.170170170170170E-02	-2.478073032796146E-02
1.204204204204204E-02	-2.673165738229955E-02
1.238238238238239E-02	-2.875256769254975E-02
1.272272272272273E-02	-3.084328808898817E-02
1.306306306306307E-02	-3.300363667847250E-02
1.340340340340341E-02	-3.523342340895397E-02
1.374374374374375E-02	-3.753245057072263E-02
1.408408408408409E-02	-3.990051326542243E-02
1.442442442442443E-02	-4.233739983476426E-02
1.476476476476477E-02	-4.484289224672011E-02
1.510510510510511E-02	-4.194294751056304E-02
1.544544544544545E-02	-4.446221191477662E-02
1.578578578578579E-02	-4.704943133526740E-02
1.612612612612613E-02	-4.970436558647862E-02
1.646646646646647E-02	-5.242676967617399E-02
1.680680680680681E-02	-5.521639404423695E-02
1.714714714714715E-02	-5.807298480368672E-02
1.748748748748749E-02	-6.099628394639467E-02
1.782782782782784E-02	-6.398602954737953E-02
1.816816816816818E-02	-6.704195594738849E-02
1.850850850850852E-02	-7.016379393468242E-02
1.884884884884886E-02	-7.335127090158267E-02
1.918918918918920E-02	-6.966596176431494E-02
1.952952952952954E-02	-7.286158914689622E-02
1.986986986986988E-02	-7.612205680260331E-02
2.021021021021022E-02	-7.944708002798961E-02
2.055055055055056E-02	-8.283637141403233E-02
2.089089089089090E-02	-8.628964095288438E-02
2.123123123123124E-02	-8.980659615821196E-02
2.157157157157158E-02	-9.338694215716714E-02
2.191191191191192E-02	-9.703038178764700E-02
2.225225225225226E-02	-1.007366156935063E-01
2.259259259259261E-02	-1.045053424036837E-01
2.293293293293295E-02	-1.000613331826798E-01
2.327327327327329E-02	-1.038322647346490E-01
2.361361361361363E-02	-1.076648111493910E-01
2.395395395395397E-02	-1.115586633372345E-01
2.429429429429431E-02	-1.155135104689293E-01
2.463463463463465E-02	-1.195290400374347E-01
2.497497497497499E-02	-1.236049379193105E-01
2.531531531531533E-02	-1.277408884316173E-01
2.565565565565567E-02	-1.319365743871117E-01
2.599599599599601E-02	-1.361916771429037E-01
2.633633633633635E-02	-1.405058766579259E-01
2.667667667667669E-02	-1.352719764372523E-01
2.701701701701703E-02	-1.395819693745466E-01
2.735735735735738E-02	-1.439501299466315E-01
2.769769769769772E-02	-1.483761330178481E-01
2.803803803803806E-02	-1.528596522728662E-01
2.837837837837840E-02	-1.574003602486869E-01
2.871871871871874E-02	-1.619979283738076E-01
2.905905905905908E-02	-1.666520269994294E-01
2.939939939939942E-02	-1.713623254408390E-01
2.973973973973976E-02	-1.761284919989521E-01
3.008008008008010E-02	-1.701372949005986E-01
3.042042042042044E-02	-1.748931658453330E-01
3.076076076076078E-02	-1.797039437680041E-01
3.110110110110112E-02	-1.845692933169971E-01
3.144144144144146E-02	-1.894888782698558E-01
3.178178178178180E-02	-1.944623615716523E-01
3.212212212212214E-02	-1.994894053481175E-01
3.246246246246248E-02	-2.045696709305957E-01
3.280280280280282E-02	-2.097028188806576E-01
3.314314314314316E-02	-2.029943746761660E-01
3.348348348348350E-02	-2.081116022283140E-01
3.382382382382385E-02	-2.132807299144019E-01
3.416416416416419E-02	-2.185014155183467E-01
3.450450450450453E-02	-2.237733161587130E-01
3.484484484484487E-02	-2.290960883015600E-01
3.518518518518521E-02	-2.344693877802229E-01
3.552552552552555E-02	-2.398928698114560E-01
3.586586586586589E-02	-2.453661890093599E-01
3.620620620620623E-02	-2.379170419742991E-01
3.654654654654657E-02	-2.433687093881645E-01
3.688688688688691E-02	-2.488692157272112E-01
3.722722722722725E-02	-2.544182134612356E-01
3.756756756756759E-02	-2.600153545328681E-01
3.790790790790793E-02	-2.656602903732050E-01
3.824824824824827E-02	-2.713526719039692E-01
3.858858858858862E-02	-2.770921495693415E-01
3.892892892892896E-02	-2.689520162279564E-01
3.926926926926930E-02	-2.746646899192910E-01
3.960960960960964E-02	-2.804234504493479E-01
3.994994994994998E-02	-2.862279465272763E-01
4.029029029029032E-02	-2.920778264294199E-01
4.063063063063066E-02	-2.979727380105714E-01
4.097097097097100E-02	-3.039123287127268E-01
4.131131131131134E-02	-3.098962455716787E-01
4.165165165165168E-02	-3.159241352292952E-01
4.199199199199202E-02	-3.069980998291157E-01
4.233233233233236E-02	-3.129933197058108E-01
4.267267267267270E-02	-3.190314932680849E-01
4.301301301301304E-02	-3.251122657848668E-01
4.335335335335339E-02	-3.312352821756690E-01
4.369369369369373E-02	-3.374001870088250E-01
4.403403403403407E-02	-3.436066245200777E-01
4.437437437437441E-02	-3.498542386134318E-01
4.471471471471475E-02	-3.401967580064706E-01
4.505505505505509E-02	-3.464064588907263E-01
4.539539539539543E-02	-3.526563103621925E-01
4.573573573573577E-02	-3.589459551936329E-01
4.607607607607611E-02	-3.652750358614867E-01
4.641641641641645E-02	-3.716431945491649E-01
4.675675675675679E-02	-3.780500731506891E-01
4.709709709709713E-02	-3.844953132829119E-01
4.743743743743747E-02	-3.740871991697645E-01
4.777777777777781E-02	-3.804892540431979E-01
4.811811811811816E-02	-3.869286389008835E-01
4.845845845845850E-02	-3.934049944164713E-01
4.879879879879884E-02	-3.999179610125907E-01
4.913913913913918E-02	-4.064671788558485E-01
4.947947947947952E-02	-4.130522878685383E-01
4.981981981981986E-02	-4.019576234650799E-01
5.016016016016020E-02	-4.084949282678849E-01
5.050050050050054E-02	-4.150670887536876E-01
5.084084084084088E-02	-4.216737440401630E-01
5.118118118118122E-02	-4.283145330164757E-01
5.152152152152156E-02	-4.349890943499872E-01
5.186186186186190E-02	-4.416970664917130E-01
5.220220220220224E-02	-4.484380876728551E-01
5.254254254254258E-02	-4.365567130595878E-01
5.288288288288293E-02	-4.432446211790761E-01
5.322322322322327E-02	-4.499645390928322E-01
5.356356356356361E-02	-4.567161043486863E-01
5.390390390390395E-02	-4.634989542987000E-01
5.424424424424429E-02	-4.703127260945053E-01
5.458458458458463E-02	-4.771570566958303E-01
5.492492492492497E-02	-4.645576184668698E-01
5.526526526526531E-02	-4.713441927459030E-01
5.560560560560565E-02	-4.781602839136099E-01
5.594594594594599E-02	-4.850055283291681E-01
5.628628628628633E-02	-4.918795621751428E-01
5.662662662662667E-02	-4.987820214519729E-01
5.696696696696701E-02	-5.057125419859290E-01
5.730730730730735E-02	-4.923803514374185E-01
5.764764764764770E-02	-4.992484651941709E-01
5.798798798798804E-02	-5.061435960485028E-01
5.832832832832838E-02	-5.130653792970747E-01
5.866866866866872E-02	-5.200134500687454E-01
5.900900900900906E-02	-5.269874433290056E-01
5.934934934934940E-02	-5.339869938787274E-01
5.968968968968974E-02	-5.199073707689763E-01
6.003003003003008E-02	-5.268398588722789E-01
6.037037037037042E-02	-5.337968582181816E-01
6.071071071071076E-02	-5.407780031363814E-01
6.105105105105110E-02	-5.477829277978685E-01
6.139139139139144E-02	-5.548112662250446E-01
6.173173173173178E-02	-5.618626522845034E-01
6.207207207207213E-02	-5.470209322203914E-01
6.241241241241247E-02	-5.540005965825685E-01
6.275275275275280E-02	-5.610022609271255E-01
6.309309309309313E-02	-5.680255586912040E-01
6.343343343343347E-02	-5.750701231658581E-01
6.377377377377380E-02	-5.821355874954293E-01
6.411411411411413E-02	-5.892215846841964E-01
6.445445445445447E-02	-5.736031254232330E-01
6.479479479479480E-02	-5.806127394405394E-01
6.513513513513514E-02	-5.876418372913008E-01
6.547547547547547E-02	-5.946900515834272E-01
6.581581581581580E-02	-6.017570147809579E-01
6.615615615615614E-02	-6.088423592125878E-01
6.649649649649647E-02	-6.159457170641076E-01
6.683683683683680E-02	-5.995359038774382E-01
6.717717717717714E-02	-6.065582159688461E-01
6.751751751751747E-02	-6.135974912646702E-01
6.785785785785781E-02	-6.206533615859939E-01
6.819819819819814E-02	-6.277254586131562E-01
6.853853853853847E-02	-6.348134138950741E-01
6.887887887887881E-02	-6.419168588424213E-01
6.921921921921914E-02	-6.247011091130616E-01
6.955955955955948E-02	-6.317188455013820E-01
6.989989989989981E-02	-6.387510202908970E-01
7.024024024024014E-02	-6.457972645429777E-01
7.058058058058048E-02	-6.528572091840488E-01
7.092092092092081E-02	-6.599304850125236E-01
7.126126126126114E-02	-6.419969021758334E-01
7.160160160160148E-02	-6.489804898348552E-01
7.194194194194181E-02	-6.559763566745005E-01
7.228228228228215E-02	-6.629841331527473E-01
7.262262262262248E-02	-6.700034495925138E-01
7.296296296296281E-02	-6.770339361839319E-01
7.330330330330315E-02	-6.840752229888380E-01
7.364364364364348E-02	-6.653087791731309E-01
7.398398398398381E-02	-6.722557167731225E-01
7.432432432432415E-02	-6.792124017056835E-01
7.466466466466448E-02	-6.861784636978996E-01
7.500500500500482E-02	-6.931535323465710E-01
7.534534534534515E-02	-7.001372371113916E-01
7.568568568568548E-02	-6.806300534664160E-01
7.602602602602582E-02	-6.875154323261086E-01
7.636636636636615E-02	-6.944083937965502E-01
7.670670670670648E-02	-7.013085670120631E-01
7.704704704704682E-02	-7.082155809732171E-01
7.738738738738715E-02	-7.151290645468293E-01
7.772772772772749E-02	-7.220486464663622E-01
7.806806806806782E-02	-7.016818249637140E-01
7.840840840840815E-02	-7.084984233435421E-01
7.874874874874849E-02	-7.153200657662069E-01
7.908908908908882E-02	-7.221463806348538E-01
7.942942942942915E-02	-7.289769962160904E-01
7.976976976976949E-02	-7.358115406424872E-01
8.011011011010982E-02	-7.146812092586856E-01
8.045045045045016E-02	-7.214087974623453E-01
8.079079079079049E-02	-7.281392596178762E-01
8.113113113113082E-02	-7.348722235221317E-01
8.147147147147116E-02	-7.416073168364505E-01
8.181181181181149E-02	-7.483441670808588E-01
8.215215215215182E-02	-7.264398947724544E-01
8.249249249249216E-02	-7.330658183488481E-01
8.283283283283249E-02	-7.396924433713821E-01
8.317317317317283E-02	-7.463193970207271E-01
8.351351351351316E-02	-7.529463063367530E-01
8.385385385385349E-02	-7.595727982175049E-01
8.419419419419383E-02	-7.661984994163049E-01
8.453453453453416E-02	-7.433957842648056E-01
8.487487487487450E-02	-7.499059078242567E-01
8.521521521521483E-02	-7.564141844075039E-01
8.555555555555516E-02	-7.629202404190778E-01
8.589589589589550E-02	-7.694237021144659E-01
8.623623623623583E-02	-7.759241956052279E-01
8.657657657657616E-02	-7.523249897001847E-01
8.691691691691650E-02	-7.587059397954476E-01
8.725725725725683E-02	-7.650828647568915E-01
8.759759759759717E-02	-7.714553903327328E-01
8.793793793793750E-02	-7.778231421189616E-01
8.827827827827783E-02	-7.841857455609897E-01
8.861861861861817E-02	-7.597797247995004E-01
8.895895895895850E-02	-7.660188214343862E-01
8.929929929929883E-02	-7.722517121289343E-01
8.963963963963917E-02	-7.784780219519121E-01
8.997997997997950E-02	-7.846973758170179E-01
9.032032032031984E-02	-7.909093984815740E-01
9.066066066066017E-02	-7.656862741017676E-01
9.100100100100050E-02	-7.717708288507197E-01
9.134134134134084E-02	-7.778469940918171E-01
9.168168168168117E-02	-7.839143941890256E-01
9.202202202202150E-02	-7.899726533486273E-01
9.236236236236184E-02	-7.960213956096709E-01
9.270270270270217E-02	-7.699709146634746E-01
9.304304304304251E-02	-7.758882301345125E-01
9.338338338338284E-02	-7.817949696408846E-01
9.372372372372317E-02	-7.876907568152660E-01
9.406406406406351E-02	-7.935752151232123E-01
9.440440440440384E-02	-7.994479678608286E-01
9.474474474474417E-02	-7.725599135949892E-01
9.508508508508451E-02	-7.782972828013612E-01
9.542542542542484E-02	-7.840218865542283E-01
9.576576576576518E-02	-7.897333477210964E-01
9.610610610610551E-02	-7.954312889984863E-01
9.644644644644584E-02	-8.011153329067611E-01
9.678678678678618E-02	-8.067851017906378E-01
9.712712712712651E-02	-7.789242307216568E-01
9.746746746746685E-02	-7.844539782287825E-01
9.780780780780718E-02	-7.899683896733336E-01
9.814814814814751E-02	-7.954670869467009E-01
9.848848848848785E-02	-8.009496917580918E-01
9.882882882882818E-02	-8.064158256377709E-01
9.916916916916851E-02	-7.776953005447353E-01
9.950950950950885E-02	-7.830174600350688E-01
9.984984984984918E-02	-7.883220865833778E-01
1.001901901901895E-01	-7.936088012446021E-01
1.005305305305298E-01	-7.988772248821192E-01
1.008708708708702E-01	-8.041269781693359E-01
1.012112112112105E-01	-7.745366976866421E-01
1.015515515515509E-01	-7.796385252137839E-01
1.018918918918912E-01	-7.847206193368379E-01
1.022322322322315E-01	-7.897826002320016E-01
1.025725725725719E-01	-7.948240878770889E-01
1.029129129129122E-01	-7.998447020547133E-01
1.032532532532525E-01	-7.693746018746310E-01
1.035935935935929E-01	-7.742433403634550E-01
1.039339339339332E-01	-7.790901412014364E-01
1.042742742742735E-01	-7.839146236463534E-01
1.046146146146139E-01	-7.887164067498134E-01
1.049549549549542E-01	-7.934951093613449E-01
1.052952952952945E-01	-7.621351622980228E-01
1.056356356356349E-01	-7.667580405191643E-01
1.059759759759752E-01	-7.713567728452517E-01
1.063163163163155E-01	-7.759309775753991E-01
1.066566566566559E-01	-7.804802727954439E-01
1.069969969969962E-01	-7.850042763761280E-01
1.073373373373365E-01	-7.527444923853182E-01
1.076776776776769E-01	-7.571087238586074E-01
1.080180180180172E-01	-7.614465969796242E-01
1.083583583583575E-01	-7.657577290415816E-01
1.086986986986979E-01	-7.700417371186745E-01
1.090390390390382E-01	-7.742982380614194E-01
1.093793793793785E-01	-7.411286642162622E-01
1.097197197197189E-01	-7.452214460675464E-01
1.100600600600592E-01	-7.492856526591254E-01
1.104004004003995E-01	-7.533209002360763E-01
1.107407407407399E-01	-7.573268048149089E-01
1.110810810810802E-01	-7.613029821787336E-01
1.114214214214205E-01	-7.272137026021142E-01
1.117617617617609E-01	-7.310222143494798E-01
1.121021021021012E-01	-7.347999292416034E-01
1.124424424424415E-01	-7.385464624289284E-01
1.127827827827819E-01	-7.422614288196314E-01
1.131231231231222E-01	-7.459444430817825E-01
1.134634634634625E-01	-7.109255788425912E-01
1.138038038038029E-01	-7.144369811371121E-01
1.141441441441432E-01	-7.179153600420136E-01
1.144844844844835E-01	-7.213603295597864E-01
1.148248248248239E-01	-7.247715034465045E-01
1.151651651651642E-01	-7.281484952025039E-01
1.155055055055045E-01	-6.921902041836461E-01
1.158458458458449E-01	-6.953916374910136E-01
1.161861861861852E-01	-6.985578156742918E-01
1.165265265265255E-01	-7.016883515404402E-01
1.168668668668659E-01	-7.047828576360757E-01
1.172072072072062E-01	-7.078409462490640E-01
1.175475475475465E-01	-6.709334229726096E-01
1.178878878878869E-01	-6.738120062089479E-01
1.182282282282272E-01	-6.766530971177076E-01
1.185685685685675E-01	-6.794563072570554E-01
1.189089089089079E-01	-6.822212479160044E-01
1.192492492492482E-01	-6.849475301111738E-01
1.195895895895885E-01	-6.876347645886653E-01
1.199299299299289E-01	-6.496238346617815E-01
1.202702702702692E-01	-6.521269285009907E-01
1.206106106106095E-01	-6.545898973181465E-01
1.209509509509499E-01	-6.570123510900885E-01
1.212912912912902E-01	-6.593938995101212E-01
1.216316316316305E-01	-6.617341519906859E-01
1.219719719719709E-01	-6.227527873647318E-01
1.223123123123112E-01	-6.249049496253747E-01
1.226526526526515E-01	-6.270147365256662E-01
1.229929929929919E-01	-6.290817566730880E-01
1.233333333333322E-01	-6.311056183832306E-01
1.236736736736725E-01	-6.330859296762696E-01
1.240140140140129E-01	-5.931244382898058E-01
1.243543543543532E-01	-5.949127082360519E-01
1.246946946946935E-01	-5.966563461025203E-01
1.250350350350339E-01	-5.983549590695247E-01
1.253753753753742E-01	-6.000081540162228E-01
1.257157157157145E-01	-6.016155375164658E-01
1.260560560560549E-01	-5.606642629399516E-01
1.263963963963952E-01	-5.620756520521581E-01
1.267367367367356E-01	-5.634401456791807E-01
1.270770770770759E-01	-5.647573495173788E-01
1.274174174174162E-01	-5.660268689507006E-01
1.277577577577566E-01	-5.672483090468745E-01
1.280980980980969E-01	-5.684212745563855E-01
1.284384384384372E-01	-5.263191205555700E-01
1.287787787787776E-01	-5.272914450430903E-01
1.291191191191179E-01	-5.282142077981007E-01
1.294594594594582E-01	-5.290870126484037E-01
1.297997997997986E-01	-5.299094630966010E-01
1.301401401401389E-01	-5.306811623135559E-01
1.304804804804792E-01	-4.875683365635837E-01
1.308208208208196E-01	-4.881354356689940E-01
1.311611611611599E-01	-4.886506937243666E-01
1.315015015015002E-01	-4.891137129405365E-01
1.318418418418406E-01	-4.895240951918254E-01
1.321821821821809E-01	-4.898814420103008E-01
1.325225225225212E-01	-4.901853545839572E-01
1.328628628628616E-01	-4.458971820294551E-01
1.332032032032019E-01	-4.459918384132493E-01
1.335435435435422E-01	-4.460319672612059E-01
1.338838838838826E-01	-4.460171687567254E-01
1.342242242242229E-01	-4.459470427286760E-01
1.345645645645632E-01	-4.458211886507115E-01
1.349049049049036E-01	-4.005016126995429E-01
1.352452452452439E-01	-4.001625353533314E-01
1.355855855855842E-01	-3.997666336783254E-01
1.359259259259246E-01	-3.993135061025441E-01
1.362662662662649E-01	-3.988027506872527E-01
1.366066066066052E-01	-3.982339651280427E-01
1.369469469469456E-01	-3.976067467483517E-01
1.372872872872859E-01	-3.510875312688881E-01
1.376276276276262E-01	-3.502424217208500E-01
1.379679679679666E-01	-3.493377792204342E-01
1.383083083083069E-01	-3.483731999971837E-01
1.386486486486472E-01	-3.473482799003591E-01
1.389889889889876E-01	-3.462626143960961E-01
1.393293293293279E-01	-2.986914167935879E-01
1.396696696696682E-01	-2.973838830170052E-01
1.400100100100086E-01	-2.960145003847288E-01
1.403503503503489E-01	-2.945828632276175E-01
1.406906906906892E-01	-2.930885654830035E-01
1.410310310310296E-01	-2.915312006929867E-01
1.413713713713699E-01	-2.899103620016490E-01
1.417117117117102E-01	-2.411154017452191E-01
1.420520520520506E-01	-2.392680125703350E-01
1.423923923923909E-01	-2.373560417944987E-01
1.427327327327312E-01	-2.353790813743899E-01
1.430730730730716E-01	-2.333367228591783E-01
1.434134134134119E-01	-2.312285573873964E-01
1.437537537537522E-01	-2.290541756833591E-01
1.440940940940926E-01	-1.790224796927191E-01
1.444344344344329E-01	-1.766168561623545E-01
1.447747747747732E-01	-1.741439042268098E-01
1.451151151151136E-01	-1.716032133704744E-01
1.454554554554539E-01	-1.689943726575507E-01
1.457957957957942E-01	-1.663169707233578E-01
1.461361361361346E-01	-1.635705957745017E-01
1.464764764764749E-01	-1.122892358886816E-01
1.468168168168152E-01	-1.093069178556902E-01
1.471571571571556E-01	-1.062545099331373E-01
1.474974974974959E-01	-1.031315990369421E-01
1.478378378378362E-01	-9.993777164214634E-02
1.481781781781766E-01	-9.667261378325520E-02
1.485185185185169E-01	-9.333571104804150E-02
1.488588588588572E-01	-4.079180308355035E-02
1.491991991991976E-01	-3.721424529447859E-02
1.495395395395379E-01	-3.356382082228038E-02
1.498798798798782E-01	-2.984011390969954E-02
1.502202202202186E-01	-2.604270834467570E-02
1.505605605605589E-01	-2.217118745687685E-02
1.509009009008992E-01	-1.822513411337923E-02
1.512412412412396E-01	3.559416309525432E-02
1.515815815815799E-01	3.978559498489176E-02
1.519219219219202E-01	4.405268630461023E-02
1.522622622622606E-01	4.839585558653425E-02
1.526026026026009E-01	5.281552183464555E-02
1.529429429429413E-01	6.987936198623856E-02
1.532832832832816E-01	7.447688902692562E-02
1.536236236236219E-01	7.915214053645059E-02
1.539639639639623E-01	1.091805317486205E-01
1.543043043043026E-01	1.140595197820744E-01
1.546446446446429E-01	1.190174307116081E-01
1.549849849849833E-01	1.240546865598731E-01
1.553253253253236E-01	1.546331334131423E-01
1.556656656656639E-01	1.598771138313850E-01
1.560060060060043E-01	1.652016418347557E-01
1.563463463463446E-01	1.706071411857124E-01
1.566866866866849E-01	2.017408744549130E-01
1.570270270270253E-01	2.073560949182252E-01
1.573673673673656E-01	2.130534937306265E-01
1.577077077077059E-01	2.446184134806231E-01
1.580480480480463E-01	2.505277540604425E-01
1.583883883883866E-01	2.565204831279857E-01
1.587287287287269E-01	2.625970275149143E-01
1.590690690690673E-01	2.947263443251131E-01
1.594094094094076E-01	3.010178419746126E-01
1.597497497497479E-01	3.073943695836192E-01
1.600900900900883E-01	3.138563558227929E-01
1.604304304304286E-01	3.204042298931427E-01
1.607707707707689E-01	3.532352802515675E-01
1.611111111111093E-01	3.600019182040342E-01
