# barionic density, mass
1.000000000000000E-02	9.332892631225587E+02
1.139139139139139E-02	9.325568414916994E+02
1.278278278278278E-02	9.318244198608400E+02
1.417417417417418E-02	9.310919982299805E+02
1.556556556556557E-02	9.303595765991212E+02
1.695695695695696E-02	9.292609441528322E+02
1.834834834834835E-02	9.285285225219728E+02
1.973973973973974E-02	9.277961008911135E+02
2.113113113113113E-02	9.270636792602540E+02
2.252252252252252E-02	9.263312576293946E+02
2.391391391391391E-02	9.255988359985353E+02
2.530530530530530E-02	9.248664143676759E+02
2.669669669669669E-02	9.241339927368165E+02
2.808808808808808E-02	9.234015711059570E+02
2.947947947947947E-02	9.226691494750977E+02
3.087087087087086E-02	9.219367278442384E+02
3.226226226226225E-02	9.212043062133790E+02
3.365365365365364E-02	9.204718845825197E+02
3.504504504504503E-02	9.201056737670899E+02
3.643643643643642E-02	9.193732521362305E+02
3.782782782782781E-02	9.186408305053711E+02
3.921921921921920E-02	9.179084088745118E+02
4.061061061061060E-02	9.171759872436525E+02
4.200200200200199E-02	9.164435656127931E+02
4.339339339339338E-02	9.157111439819337E+02
4.478478478478477E-02	9.149787223510742E+02
4.617617617617616E-02	9.146125115356446E+02
4.756756756756755E-02	9.138800899047852E+02
4.895895895895894E-02	9.131476682739259E+02
5.035035035035033E-02	9.124152466430664E+02
5.174174174174172E-02	9.116828250122070E+02
5.313313313313311E-02	9.109504033813477E+02
5.452452452452450E-02	9.105841925659180E+02
5.591591591591589E-02	9.098517709350587E+02
5.730730730730728E-02	9.091193493041993E+02
5.869869869869867E-02	9.083869276733399E+02
6.009009009009006E-02	9.080207168579102E+02
6.148148148148145E-02	9.072882952270508E+02
6.287287287287284E-02	9.065558735961914E+02
6.426426426426424E-02	9.061896627807618E+02
6.565565565565563E-02	9.054572411499024E+02
6.704704704704703E-02	9.047248195190431E+02
6.843843843843843E-02	9.039923978881836E+02
6.982982982982983E-02	9.036261870727540E+02
7.122122122122122E-02	9.028937654418945E+02
7.261261261261262E-02	9.025275546264648E+02
7.400400400400402E-02	9.017951329956055E+02
7.539539539539541E-02	9.010627113647462E+02
7.678678678678681E-02	9.006965005493165E+02
7.817817817817821E-02	8.999640789184572E+02
7.956956956956961E-02	8.992316572875977E+02
8.096096096096100E-02	8.988654464721679E+02
8.235235235235240E-02	8.981330248413086E+02
8.374374374374380E-02	8.977668140258789E+02
8.513513513513520E-02	8.970343923950196E+02
8.652652652652659E-02	8.966681815795899E+02
8.791791791791799E-02	8.959357599487306E+02
8.930930930930939E-02	8.952033383178712E+02
9.070070070070078E-02	8.948371275024415E+02
9.209209209209218E-02	8.941047058715820E+02
9.348348348348358E-02	8.937384950561524E+02
9.487487487487498E-02	8.930060734252930E+02
9.626626626626637E-02	8.926398626098634E+02
9.765765765765777E-02	8.919074409790040E+02
9.904904904904917E-02	8.915412301635744E+02
1.004404404404406E-01	8.908088085327149E+02
1.018318318318320E-01	8.904425977172853E+02
1.032232232232234E-01	8.900763869018555E+02
1.046146146146148E-01	8.893439652709961E+02
1.060060060060062E-01	8.889777544555665E+02
1.073973973973976E-01	8.882453328247071E+02
1.087887887887889E-01	8.878791220092775E+02
1.101801801801803E-01	8.871467003784181E+02
1.115715715715717E-01	8.867804895629885E+02
1.129629629629631E-01	8.864142787475587E+02
1.143543543543545E-01	8.856818571166992E+02
1.157457457457459E-01	8.853156463012696E+02
1.171371371371373E-01	8.845832246704102E+02
1.185285285285287E-01	8.842170138549806E+02
1.199199199199201E-01	8.838508030395509E+02
1.213113113113115E-01	8.831183814086916E+02
1.227027027027029E-01	8.827521705932619E+02
1.240940940940943E-01	8.823859597778322E+02
1.254854854854857E-01	8.816535381469728E+02
1.268768768768771E-01	8.812873273315430E+02
1.282682682682685E-01	8.809211165161133E+02
1.296596596596599E-01	8.801886948852540E+02
1.310510510510512E-01	8.798224840698243E+02
1.324424424424426E-01	8.794562732543947E+02
1.338338338338340E-01	8.790900624389650E+02
1.352252252252254E-01	8.783576408081057E+02
1.366166166166168E-01	8.779914299926760E+02
1.380080080080082E-01	8.776252191772462E+02
1.393993993993995E-01	8.772590083618165E+02
1.407907907907909E-01	8.765265867309571E+02
1.421821821821823E-01	8.761603759155274E+02
1.435735735735737E-01	8.757941651000978E+02
1.449649649649651E-01	8.754279542846681E+02
1.463563563563565E-01	8.746955326538088E+02
1.477477477477478E-01	8.743293218383791E+02
1.491391391391392E-01	8.739631110229494E+02
1.505305305305306E-01	8.735969002075198E+02
1.519219219219220E-01	8.732306893920900E+02
1.533133133133134E-01	8.724982677612305E+02
1.547047047047048E-01	8.721320569458009E+02
1.560960960960961E-01	8.717658461303712E+02
1.574874874874875E-01	8.713996353149415E+02
1.588788788788789E-01	8.710334244995119E+02
1.602702702702703E-01	8.703010028686525E+02
1.616616616616617E-01	8.699347920532228E+02
1.630530530530531E-01	8.695685812377932E+02
1.644444444444444E-01	8.692023704223635E+02
1.658358358358358E-01	8.688361596069337E+02
1.672272272272272E-01	8.684699487915041E+02
1.686186186186186E-01	8.681037379760743E+02
1.700100100100100E-01	8.677375271606446E+02
1.714014014014014E-01	8.670051055297853E+02
1.727927927927927E-01	8.666388947143556E+02
1.741841841841841E-01	8.662726838989259E+02
1.755755755755755E-01	8.659064730834962E+02
1.769669669669669E-01	8.655402622680665E+02
1.783583583583583E-01	8.651740514526367E+02
1.797497497497497E-01	8.648078406372071E+02
1.811411411411410E-01	8.644416298217774E+02
1.825325325325324E-01	8.640754190063477E+02
1.839239239239238E-01	8.637092081909180E+02
1.853153153153152E-01	8.633429973754884E+02
1.867067067067066E-01	8.629767865600587E+02
1.880980980980980E-01	8.626105757446290E+02
1.894894894894893E-01	8.618781541137697E+02
1.908808808808807E-01	8.615119432983399E+02
1.922722722722721E-01	8.611457324829103E+02
1.936636636636635E-01	8.607795216674805E+02
1.950550550550549E-01	8.604133108520508E+02
1.964464464464463E-01	8.600471000366211E+02
1.978378378378376E-01	8.596808892211915E+02
1.992292292292290E-01	8.593146784057618E+02
2.006206206206204E-01	8.589484675903321E+02
2.020120120120118E-01	8.585822567749025E+02
2.034034034034032E-01	8.582160459594728E+02
2.047947947947946E-01	8.578498351440431E+02
2.061861861861859E-01	8.574836243286135E+02
2.075775775775773E-01	8.571174135131837E+02
2.089689689689687E-01	8.567512026977540E+02
2.103603603603601E-01	8.563849918823242E+02
2.117517517517515E-01	8.560187810668946E+02
2.131431431431429E-01	8.560187810668946E+02
2.145345345345342E-01	8.556525702514649E+02
2.159259259259256E-01	8.552863594360352E+02
2.173173173173170E-01	8.549201486206056E+02
2.187087087087084E-01	8.545539378051759E+02
2.201001001000998E-01	8.541877269897461E+02
2.214914914914912E-01	8.538215161743165E+02
2.228828828828825E-01	8.534553053588867E+02
2.242742742742739E-01	8.530890945434570E+02
2.256656656656653E-01	8.527228837280273E+02
2.270570570570567E-01	8.523566729125977E+02
2.284484484484481E-01	8.519904620971680E+02
2.298398398398395E-01	8.516242512817383E+02
2.312312312312308E-01	8.512580404663087E+02
2.326226226226222E-01	8.508918296508790E+02
2.340140140140136E-01	8.508918296508790E+02
2.354054054054050E-01	8.505256188354493E+02
2.367967967967964E-01	8.501594080200197E+02
2.381881881881878E-01	8.497931972045899E+02
2.395795795795791E-01	8.494269863891602E+02
2.409709709709705E-01	8.490607755737304E+02
2.423623623623619E-01	8.486945647583008E+02
2.437537537537533E-01	8.483283539428711E+02
2.451451451451447E-01	8.479621431274414E+02
2.465365365365361E-01	8.479621431274414E+02
2.479279279279274E-01	8.475959323120118E+02
2.493193193193188E-01	8.472297214965821E+02
2.507107107107102E-01	8.468635106811524E+02
2.521021021021016E-01	8.464972998657228E+02
2.534934934934930E-01	8.461310890502931E+02
2.548848848848844E-01	8.457648782348634E+02
2.562762762762757E-01	8.453986674194337E+02
2.576676676676671E-01	8.453986674194337E+02
2.590590590590585E-01	8.450324566040040E+02
2.604504504504499E-01	8.446662457885742E+02
2.618418418418413E-01	8.443000349731445E+02
2.632332332332327E-01	8.439338241577149E+02
2.646246246246240E-01	8.435676133422852E+02
2.660160160160154E-01	8.432014025268555E+02
2.674074074074068E-01	8.432014025268555E+02
2.687987987987982E-01	8.428351917114259E+02
2.701901901901896E-01	8.424689808959961E+02
2.715815815815810E-01	8.421027700805664E+02
2.729729729729723E-01	8.417365592651366E+02
2.743643643643637E-01	8.413703484497070E+02
2.757557557557551E-01	8.413703484497070E+02
2.771471471471465E-01	8.410041376342773E+02
2.785385385385379E-01	8.406379268188476E+02
2.799299299299293E-01	8.402717160034180E+02
2.813213213213206E-01	8.399055051879883E+02
2.827127127127120E-01	8.399055051879883E+02
2.841041041041034E-01	8.395392943725586E+02
2.854954954954948E-01	8.391730835571290E+02
2.868868868868862E-01	8.388068727416993E+02
2.882782782782776E-01	8.384406619262696E+02
2.896696696696689E-01	8.380744511108398E+02
2.910610610610603E-01	8.380744511108398E+02
2.924524524524517E-01	8.377082402954102E+02
2.938438438438431E-01	8.373420294799804E+02
2.952352352352345E-01	8.369758186645507E+02
2.966266266266259E-01	8.366096078491211E+02
2.980180180180173E-01	8.366096078491211E+02
2.994094094094086E-01	8.362433970336914E+02
3.008008008008000E-01	8.358771862182617E+02
3.021921921921914E-01	8.355109754028321E+02
3.035835835835828E-01	8.351447645874024E+02
3.049749749749742E-01	8.351447645874024E+02
3.063663663663656E-01	8.347785537719727E+02
3.077577577577569E-01	8.344123429565431E+02
3.091491491491483E-01	8.340461321411134E+02
3.105405405405397E-01	8.336799213256836E+02
3.119319319319311E-01	8.336799213256836E+02
3.133233233233225E-01	8.333137105102539E+02
3.147147147147139E-01	8.329474996948242E+02
3.161061061061052E-01	8.325812888793945E+02
3.174974974974966E-01	8.322150780639648E+02
3.188888888888880E-01	8.322150780639648E+02
3.202802802802794E-01	8.318488672485352E+02
3.216716716716708E-01	8.314826564331055E+02
3.230630630630622E-01	8.311164456176758E+02
3.244544544544535E-01	8.307502348022462E+02
3.258458458458449E-01	8.307502348022462E+02
3.272372372372363E-01	8.303840239868165E+02
3.286286286286277E-01	8.300178131713868E+02
3.300200200200191E-01	8.296516023559572E+02
3.314114114114105E-01	8.292853915405274E+02
3.328028028028018E-01	8.292853915405274E+02
3.341941941941932E-01	8.289191807250977E+02
3.355855855855846E-01	8.285529699096679E+02
3.369769769769760E-01	8.281867590942383E+02
3.383683683683674E-01	8.278205482788086E+02
3.397597597597588E-01	8.278205482788086E+02
3.411511511511501E-01	8.274543374633789E+02
3.425425425425415E-01	8.270881266479493E+02
3.439339339339329E-01	8.267219158325196E+02
3.453253253253243E-01	8.263557050170899E+02
3.467167167167157E-01	8.263557050170899E+02
3.481081081081071E-01	8.259894942016602E+02
3.494994994994984E-01	8.256232833862306E+02
3.508908908908898E-01	8.252570725708009E+02
3.522822822822812E-01	8.248908617553711E+02
3.536736736736726E-01	8.248908617553711E+02
3.550650650650640E-01	8.245246509399415E+02
3.564564564564554E-01	8.241584401245117E+02
3.578478478478467E-01	8.237922293090820E+02
3.592392392392381E-01	8.234260184936524E+02
3.606306306306295E-01	8.234260184936524E+02
3.620220220220209E-01	8.230598076782227E+02
3.634134134134123E-01	8.226935968627930E+02
3.648048048048037E-01	8.223273860473633E+02
3.661961961961950E-01	8.219611752319337E+02
3.675875875875864E-01	8.215949644165040E+02
3.689789789789778E-01	8.215949644165040E+02
3.703703703703692E-01	8.212287536010743E+02
3.717617617617606E-01	8.208625427856447E+02
3.731531531531520E-01	8.204963319702149E+02
3.745445445445433E-01	8.201301211547852E+02
3.759359359359347E-01	8.197639103393554E+02
3.773273273273261E-01	8.197639103393554E+02
3.787187187187175E-01	8.193976995239258E+02
3.801101101101089E-01	8.190314887084961E+02
3.815015015015003E-01	8.186652778930664E+02
3.828928928928916E-01	8.182990670776368E+02
3.842842842842830E-01	8.179328562622071E+02
3.856756756756744E-01	8.179328562622071E+02
3.870670670670658E-01	8.175666454467774E+02
3.884584584584572E-01	8.172004346313478E+02
3.898498498498486E-01	8.168342238159181E+02
3.912412412412399E-01	8.164680130004884E+02
3.926326326326313E-01	8.161018021850587E+02
3.940240240240227E-01	8.161018021850587E+02
3.954154154154141E-01	8.157355913696290E+02
3.968068068068055E-01	8.153693805541992E+02
3.981981981981969E-01	8.150031697387695E+02
3.995895895895882E-01	8.146369589233399E+02
4.009809809809796E-01	8.142707481079102E+02
4.023723723723710E-01	8.139045372924805E+02
4.037637637637624E-01	8.135383264770509E+02
4.051551551551538E-01	8.135383264770509E+02
4.065465465465452E-01	8.131721156616212E+02
4.079379379379365E-01	8.128059048461915E+02
4.093293293293279E-01	8.124396940307619E+02
4.107207207207193E-01	8.120734832153322E+02
4.121121121121107E-01	8.117072723999024E+02
4.135035035035021E-01	8.113410615844728E+02
4.148948948948935E-01	8.109748507690430E+02
4.162862862862848E-01	8.106086399536133E+02
4.176776776776762E-01	8.106086399536133E+02
4.190690690690676E-01	8.102424291381836E+02
4.204604604604590E-01	8.098762183227540E+02
4.218518518518504E-01	8.095100075073243E+02
4.232432432432418E-01	8.091437966918946E+02
4.246346346346331E-01	8.087775858764650E+02
4.260260260260245E-01	8.084113750610353E+02
4.274174174174159E-01	8.080451642456056E+02
4.288088088088073E-01	8.076789534301760E+02
4.302002002001987E-01	8.073127426147462E+02
4.315915915915901E-01	8.069465317993165E+02
4.329829829829814E-01	8.065803209838867E+02
4.343743743743728E-01	8.062141101684571E+02
4.357657657657642E-01	8.058478993530274E+02
4.371571571571556E-01	8.054816885375977E+02
4.385485485485470E-01	8.051154777221681E+02
4.399399399399384E-01	8.051154777221681E+02
4.413313313313297E-01	8.047492669067384E+02
4.427227227227211E-01	8.043830560913087E+02
4.441141141141125E-01	8.040168452758791E+02
4.455055055055039E-01	8.036506344604494E+02
4.468968968968953E-01	8.032844236450197E+02
4.482882882882867E-01	8.029182128295899E+02
4.496796796796780E-01	8.025520020141603E+02
4.510710710710694E-01	8.021857911987305E+02
4.524624624624608E-01	8.018195803833008E+02
4.538538538538522E-01	8.014533695678712E+02
4.552452452452436E-01	8.010871587524415E+02
4.566366366366350E-01	8.007209479370118E+02
4.580280280280263E-01	8.003547371215822E+02
4.594194194194177E-01	7.999885263061525E+02
4.608108108108091E-01	7.992561046752932E+02
4.622022022022005E-01	7.988898938598635E+02
4.635935935935919E-01	7.985236830444337E+02
4.649849849849833E-01	7.981574722290040E+02
4.663763763763746E-01	7.977912614135743E+02
4.677677677677660E-01	7.974250505981446E+02
4.691591591591574E-01	7.970588397827149E+02
4.705505505505488E-01	7.966926289672853E+02
4.719419419419402E-01	7.963264181518556E+02
4.733333333333316E-01	7.959602073364259E+02
4.747247247247229E-01	7.955939965209961E+02
4.761161161161143E-01	7.952277857055665E+02
4.775075075075057E-01	7.948615748901367E+02
4.788988988988971E-01	7.944953640747070E+02
4.802902902902885E-01	7.937629424438477E+02
4.816816816816799E-01	7.933967316284180E+02
4.830730730730712E-01	7.930305208129884E+02
4.844644644644626E-01	7.926643099975587E+02
4.858558558558540E-01	7.922980991821290E+02
4.872472472472454E-01	7.919318883666994E+02
4.886386386386368E-01	7.915656775512697E+02
4.900300300300282E-01	7.911994667358399E+02
4.914214214214195E-01	7.904670451049805E+02
4.928128128128109E-01	7.901008342895508E+02
4.942042042042023E-01	7.897346234741211E+02
4.955955955955937E-01	7.893684126586915E+02
4.969869869869851E-01	7.890022018432618E+02
4.983783783783765E-01	7.886359910278321E+02
4.997697697697678E-01	7.879035693969728E+02
5.011611611611593E-01	7.875373585815431E+02
5.025525525525507E-01	7.871711477661134E+02
5.039439439439422E-01	7.868049369506837E+02
5.053353353353336E-01	7.864387261352540E+02
5.067267267267250E-01	7.857063045043946E+02
5.081181181181165E-01	7.853400936889649E+02
5.095095095095079E-01	7.849738828735352E+02
5.109009009008993E-01	7.846076720581055E+02
5.122922922922908E-01	7.838752504272461E+02
5.136836836836822E-01	7.835090396118164E+02
5.150750750750737E-01	7.831428287963867E+02
5.164664664664651E-01	7.827766179809570E+02
5.178578578578565E-01	7.820441963500976E+02
5.192492492492480E-01	7.816779855346680E+02
5.206406406406394E-01	7.813117747192383E+02
5.220320320320309E-01	7.809455639038086E+02
5.234234234234223E-01	7.802131422729493E+02
5.248148148148137E-01	7.798469314575196E+02
5.262062062062052E-01	7.794807206420899E+02
5.275975975975966E-01	7.787482990112304E+02
5.289889889889881E-01	7.783820881958007E+02
5.303803803803795E-01	7.780158773803711E+02
5.317717717717709E-01	7.772834557495117E+02
5.331631631631624E-01	7.769172449340821E+02
5.345545545545538E-01	7.765510341186524E+02
5.359459459459452E-01	7.758186124877931E+02
5.373373373373367E-01	7.754524016723634E+02
5.387287287287281E-01	7.747199800415040E+02
5.401201201201196E-01	7.743537692260742E+02
5.415115115115110E-01	7.739875584106445E+02
5.429029029029024E-01	7.732551367797852E+02
5.442942942942939E-01	7.728889259643555E+02
5.456856856856853E-01	7.721565043334961E+02
5.470770770770768E-01	7.717902935180664E+02
5.484684684684682E-01	7.714240827026366E+02
5.498598598598596E-01	7.706916610717773E+02
5.512512512512511E-01	7.703254502563476E+02
5.526426426426425E-01	7.695930286254883E+02
5.540340340340340E-01	7.692268178100586E+02
5.554254254254254E-01	7.684943961791993E+02
5.568168168168168E-01	7.681281853637696E+02
5.582082082082083E-01	7.673957637329102E+02
5.595995995995997E-01	7.670295529174804E+02
5.609909909909911E-01	7.662971312866210E+02
5.623823823823826E-01	7.659309204711914E+02
5.637737737737740E-01	7.651984988403320E+02
5.651651651651655E-01	7.648322880249024E+02
5.665565565565569E-01	7.640998663940430E+02
5.679479479479483E-01	7.637336555786134E+02
5.693393393393398E-01	7.630012339477539E+02
5.707307307307312E-01	7.626350231323241E+02
5.721221221221227E-01	7.619026015014648E+02
5.735135135135141E-01	7.615363906860351E+02
5.749049049049055E-01	7.608039690551758E+02
5.762962962962970E-01	7.600715474243165E+02
5.776876876876884E-01	7.597053366088868E+02
5.790790790790799E-01	7.589729149780273E+02
5.804704704704713E-01	7.582404933471679E+02
5.818618618618627E-01	7.578742825317382E+02
5.832532532532542E-01	7.571418609008789E+02
5.846446446446456E-01	7.567756500854492E+02
5.860360360360370E-01	7.560432284545899E+02
5.874274274274285E-01	7.553108068237306E+02
5.888188188188199E-01	7.549445960083009E+02
5.902102102102114E-01	7.542121743774414E+02
5.916016016016028E-01	7.534797527465820E+02
5.929929929929942E-01	7.531135419311523E+02
5.943843843843857E-01	7.523811203002930E+02
5.957757757757771E-01	7.516486986694337E+02
5.971671671671686E-01	7.509162770385743E+02
5.985585585585600E-01	7.505500662231447E+02
5.999499499499514E-01	7.498176445922852E+02
6.013413413413429E-01	7.490852229614258E+02
6.027327327327343E-01	7.483528013305664E+02
6.041241241241257E-01	7.479865905151368E+02
6.055155155155172E-01	7.472541688842774E+02
6.069069069069086E-01	7.465217472534181E+02
6.082982982983001E-01	7.457893256225586E+02
6.096896896896915E-01	7.450569039916992E+02
6.110810810810829E-01	7.446906931762695E+02
6.124724724724744E-01	7.439582715454102E+02
6.138638638638658E-01	7.432258499145508E+02
6.152552552552573E-01	7.424934282836915E+02
6.166466466466487E-01	7.417610066528322E+02
6.180380380380401E-01	7.410285850219727E+02
6.194294294294316E-01	7.402961633911133E+02
6.208208208208230E-01	7.399299525756836E+02
6.222122122122145E-01	7.391975309448243E+02
6.236036036036059E-01	7.384651093139649E+02
6.249949949949973E-01	7.377326876831056E+02
6.263863863863888E-01	7.370002660522462E+02
6.277777777777802E-01	7.362678444213867E+02
6.291691691691716E-01	7.355354227905274E+02
6.305605605605631E-01	7.348030011596680E+02
6.319519519519545E-01	7.340705795288087E+02
6.333433433433460E-01	7.333381578979494E+02
6.347347347347374E-01	7.326057362670899E+02
6.361261261261288E-01	7.318733146362305E+02
6.375175175175203E-01	7.311408930053711E+02
6.389089089089117E-01	7.304084713745118E+02
