# barionic density, mass
1.000000000000000E-02	9.179084088745118E+02
1.139139139139139E-02	9.153449331665040E+02
1.278278278278278E-02	9.124152466430664E+02
1.417417417417418E-02	9.094855601196290E+02
1.556556556556557E-02	9.065558735961914E+02
1.695695695695696E-02	9.036261870727540E+02
1.834834834834835E-02	9.006965005493165E+02
1.973973973973974E-02	8.977668140258789E+02
2.113113113113113E-02	8.952033383178712E+02
2.252252252252252E-02	8.922736517944337E+02
2.391391391391391E-02	8.893439652709961E+02
2.530530530530530E-02	8.864142787475587E+02
2.669669669669669E-02	8.834845922241212E+02
2.808808808808808E-02	8.809211165161133E+02
2.947947947947947E-02	8.779914299926760E+02
3.087087087087086E-02	8.750617434692384E+02
3.226226226226225E-02	8.721320569458009E+02
3.365365365365364E-02	8.695685812377932E+02
3.504504504504503E-02	8.666388947143556E+02
3.643643643643642E-02	8.637092081909180E+02
3.782782782782781E-02	8.611457324829103E+02
3.921921921921920E-02	8.582160459594728E+02
4.061061061061060E-02	8.552863594360352E+02
4.200200200200199E-02	8.527228837280273E+02
4.339339339339338E-02	8.497931972045899E+02
4.478478478478477E-02	8.468635106811524E+02
4.617617617617616E-02	8.443000349731445E+02
4.756756756756755E-02	8.413703484497070E+02
4.895895895895894E-02	8.384406619262696E+02
5.035035035035033E-02	8.358771862182617E+02
5.174174174174172E-02	8.329474996948242E+02
5.313313313313311E-02	8.300178131713868E+02
5.452452452452450E-02	8.274543374633789E+02
5.591591591591589E-02	8.245246509399415E+02
5.730730730730728E-02	8.219611752319337E+02
5.869869869869867E-02	8.190314887084961E+02
6.009009009009006E-02	8.161018021850587E+02
6.148148148148145E-02	8.135383264770509E+02
6.287287287287284E-02	8.106086399536133E+02
6.426426426426424E-02	8.080451642456056E+02
6.565565565565563E-02	8.051154777221681E+02
6.704704704704703E-02	8.021857911987305E+02
6.843843843843843E-02	7.996223154907228E+02
6.982982982982983E-02	7.966926289672853E+02
7.122122122122122E-02	7.941291532592774E+02
7.261261261261262E-02	7.911994667358399E+02
7.400400400400402E-02	7.886359910278321E+02
7.539539539539541E-02	7.857063045043946E+02
7.678678678678681E-02	7.831428287963867E+02
7.817817817817821E-02	7.802131422729493E+02
7.956956956956961E-02	7.776496665649414E+02
8.096096096096100E-02	7.747199800415040E+02
8.235235235235240E-02	7.717902935180664E+02
8.374374374374380E-02	7.692268178100586E+02
8.513513513513520E-02	7.662971312866210E+02
8.652652652652659E-02	7.637336555786134E+02
8.791791791791799E-02	7.608039690551758E+02
8.930930930930939E-02	7.582404933471679E+02
9.070070070070078E-02	7.553108068237306E+02
9.209209209209218E-02	7.527473311157227E+02
9.348348348348358E-02	7.498176445922852E+02
9.487487487487498E-02	7.472541688842774E+02
9.626626626626637E-02	7.443244823608399E+02
9.765765765765777E-02	7.417610066528322E+02
9.904904904904917E-02	7.388313201293946E+02
1.004404404404406E-01	7.362678444213867E+02
1.018318318318320E-01	7.333381578979494E+02
1.032232232232234E-01	7.307746821899415E+02
1.046146146146148E-01	7.278449956665040E+02
1.060060060060062E-01	7.252815199584961E+02
1.073973973973976E-01	7.223518334350587E+02
1.087887887887889E-01	7.197883577270508E+02
1.101801801801803E-01	7.168586712036134E+02
1.115715715715717E-01	7.142951954956055E+02
1.129629629629631E-01	7.113655089721680E+02
1.143543543543545E-01	7.088020332641602E+02
1.157457457457459E-01	7.058723467407227E+02
1.171371371371373E-01	7.033088710327148E+02
1.185285285285287E-01	7.003791845092773E+02
1.199199199199201E-01	6.978157088012696E+02
1.213113113113115E-01	6.948860222778320E+02
1.227027027027029E-01	6.923225465698241E+02
1.240940940940943E-01	6.893928600463868E+02
1.254854854854857E-01	6.868293843383789E+02
1.268768768768771E-01	6.838996978149414E+02
1.282682682682685E-01	6.813362221069336E+02
1.296596596596599E-01	6.784065355834961E+02
1.310510510510512E-01	6.754768490600586E+02
1.324424424424426E-01	6.729133733520508E+02
1.338338338338340E-01	6.699836868286133E+02
1.352252252252254E-01	6.674202111206056E+02
1.366166166166168E-01	6.644905245971680E+02
1.380080080080082E-01	6.619270488891602E+02
1.393993993993995E-01	6.589973623657228E+02
1.407907907907909E-01	6.564338866577149E+02
1.421821821821823E-01	6.535042001342773E+02
1.435735735735737E-01	6.505745136108399E+02
1.449649649649651E-01	6.480110379028321E+02
1.463563563563565E-01	6.450813513793945E+02
1.477477477477478E-01	6.425178756713868E+02
1.491391391391392E-01	6.395881891479493E+02
1.505305305305306E-01	6.366585026245117E+02
1.519219219219220E-01	6.340950269165040E+02
1.533133133133134E-01	6.312568930969239E+02
1.547047047047048E-01	6.285103119812013E+02
1.560960960960961E-01	6.255806254577637E+02
1.574874874874875E-01	6.228340443420411E+02
1.588788788788789E-01	6.200874632263185E+02
1.602702702702703E-01	6.171577767028809E+02
1.616616616616617E-01	6.144111955871583E+02
1.630530530530531E-01	6.116646144714357E+02
1.644444444444444E-01	6.087349279479981E+02
1.658358358358358E-01	6.059883468322755E+02
1.672272272272272E-01	6.030586603088379E+02
1.686186186186186E-01	6.003120791931153E+02
1.700100100100100E-01	5.973823926696778E+02
1.714014014014014E-01	5.946358115539551E+02
1.727927927927927E-01	5.917061250305176E+02
1.741841841841841E-01	5.889595439147949E+02
1.755755755755755E-01	5.860298573913574E+02
1.769669669669669E-01	5.832832762756348E+02
1.783583583583583E-01	5.803535897521973E+02
1.797497497497497E-01	5.774239032287599E+02
1.811411411411410E-01	5.746773221130370E+02
1.825325325325324E-01	5.717476355895997E+02
1.839239239239238E-01	5.688179490661621E+02
1.853153153153152E-01	5.660713679504395E+02
1.867067067067066E-01	5.631416814270021E+02
1.880980980980980E-01	5.602119949035646E+02
1.894894894894893E-01	5.572823083801270E+02
1.908808808808807E-01	5.543526218566897E+02
1.922722722722721E-01	5.514229353332521E+02
1.936636636636635E-01	5.484932488098145E+02
1.950550550550549E-01	5.455635622863772E+02
1.964464464464463E-01	5.426338757629396E+02
1.978378378378376E-01	5.397041892395021E+02
1.992292292292290E-01	5.367745027160645E+02
2.006206206206204E-01	5.338448161926271E+02
2.020120120120118E-01	5.309151296691896E+02
2.034034034034032E-01	5.279854431457520E+02
2.047947947947946E-01	5.250557566223144E+02
2.061861861861859E-01	5.219429646911622E+02
2.075775775775773E-01	5.190132781677246E+02
2.089689689689687E-01	5.160835916442870E+02
2.103603603603601E-01	5.129707997131347E+02
2.117517517517515E-01	5.100411131896972E+02
2.131431431431429E-01	5.069283212585449E+02
2.145345345345342E-01	5.039986347351074E+02
2.159259259259256E-01	5.008858428039551E+02
2.173173173173170E-01	4.979561562805176E+02
2.187087087087084E-01	4.948433643493652E+02
2.201001001000998E-01	4.917305724182129E+02
2.214914914914912E-01	4.888008858947754E+02
2.228828828828825E-01	4.856880939636231E+02
2.242742742742739E-01	4.825753020324707E+02
2.256656656656653E-01	4.794625101013184E+02
2.270570570570567E-01	4.763497181701661E+02
2.284484484484481E-01	4.732369262390137E+02
2.298398398398395E-01	4.701241343078614E+02
2.312312312312308E-01	4.670113423767090E+02
2.326226226226222E-01	4.638985504455567E+02
2.340140140140136E-01	4.606026531066895E+02
2.354054054054050E-01	4.574898611755371E+02
2.367967967967964E-01	4.543770692443848E+02
2.381881881881878E-01	4.510811719055176E+02
2.395795795795791E-01	4.479683799743653E+02
2.409709709709705E-01	4.446724826354981E+02
2.423623623623619E-01	4.413765852966309E+02
2.437537537537533E-01	4.382637933654785E+02
2.451451451451447E-01	4.349678960266114E+02
2.465365365365361E-01	4.316719986877442E+02
2.479279279279274E-01	4.283761013488770E+02
2.493193193193188E-01	4.250802040100098E+02
2.507107107107102E-01	4.217843066711426E+02
2.521021021021016E-01	4.183053039245605E+02
2.534934934934930E-01	4.150094065856934E+02
2.548848848848844E-01	4.117135092468262E+02
2.562762762762757E-01	4.082345065002442E+02
2.576676676676671E-01	4.049386091613770E+02
2.590590590590585E-01	4.014596064147950E+02
2.604504504504499E-01	3.979806036682130E+02
2.618418418418413E-01	3.945016009216309E+02
2.632332332332327E-01	3.910225981750488E+02
2.646246246246240E-01	3.875435954284668E+02
2.660160160160154E-01	3.840645926818848E+02
2.674074074074068E-01	3.805855899353027E+02
2.687987987987982E-01	3.771065871887207E+02
2.701901901901896E-01	3.734444790344239E+02
2.715815815815810E-01	3.697823708801270E+02
2.729729729729723E-01	3.663033681335450E+02
2.743643643643637E-01	3.626412599792480E+02
2.757557557557551E-01	3.589791518249512E+02
2.771471471471465E-01	3.551339382629395E+02
2.785385385385379E-01	3.514718301086426E+02
2.799299299299293E-01	3.478097219543457E+02
2.813213213213206E-01	3.439645083923339E+02
2.827127127127120E-01	3.401192948303223E+02
2.841041041041034E-01	3.362740812683106E+02
2.854954954954948E-01	3.324288677062988E+02
2.868868868868862E-01	3.285836541442871E+02
2.882782782782776E-01	3.247384405822754E+02
2.896696696696689E-01	3.207101216125488E+02
2.910610610610603E-01	3.166818026428223E+02
2.924524524524517E-01	3.126534836730958E+02
2.938438438438431E-01	3.086251647033692E+02
2.952352352352345E-01	3.044137403259278E+02
2.966266266266259E-01	3.003854213562012E+02
2.980180180180173E-01	2.961739969787598E+02
2.994094094094086E-01	2.919625726013183E+02
3.008008008008000E-01	2.875680428161621E+02
3.021921921921914E-01	2.833566184387207E+02
3.035835835835828E-01	2.789620886535645E+02
3.049749749749742E-01	2.745675588684082E+02
3.063663663663656E-01	2.699899236755371E+02
3.077577577577569E-01	2.654580648345948E+02
3.091491491491483E-01	2.608804296417237E+02
3.105405405405397E-01	2.562112417449950E+02
3.119319319319311E-01	2.514505011444092E+02
3.133233233233225E-01	2.466897605438233E+02
3.147147147147139E-01	2.417459145355225E+02
3.161061061061052E-01	2.368020685272217E+02
3.174974974974966E-01	2.317666698150635E+02
3.188888888888880E-01	2.266397183990478E+02
3.202802802802794E-01	2.213296615753174E+02
3.216716716716708E-01	2.160196047515869E+02
3.230630630630622E-01	2.105264425201416E+02
3.244544544544535E-01	2.049417275848388E+02
3.258458458458449E-01	1.992654599456787E+02
3.272372372372363E-01	1.934060868988037E+02
3.286286286286277E-01	1.873636084442138E+02
3.300200200200191E-01	1.812295772857666E+02
3.314114114114105E-01	1.748208880157470E+02
3.328028028028018E-01	1.682290933380127E+02
3.341941941941932E-01	1.614541932525635E+02
3.355855855855846E-01	1.543130823516846E+02
3.369769769769760E-01	1.469888660430908E+02
3.383683683683674E-01	1.392068862152099E+02
3.397597597597588E-01	1.310586955718994E+02
3.411511511511501E-01	1.223611887054443E+02
3.425425425425415E-01	1.130228129119873E+02
3.439339339339329E-01	1.029520154876709E+02
3.453253253253243E-01	9.187413832092284E+01
3.467167167167157E-01	7.926275336456300E+01
3.481081081081071E-01	6.429388628387451E+01
3.494994994994984E-01	4.470160765838624E+01
3.508908908908898E-01	0.000000000000000E+00
3.522822822822812E-01	0.000000000000000E+00
3.536736736736726E-01	0.000000000000000E+00
3.550650650650640E-01	0.000000000000000E+00
3.564564564564554E-01	0.000000000000000E+00
3.578478478478467E-01	0.000000000000000E+00
3.592392392392381E-01	0.000000000000000E+00
3.606306306306295E-01	0.000000000000000E+00
3.620220220220209E-01	0.000000000000000E+00
3.634134134134123E-01	0.000000000000000E+00
3.648048048048037E-01	0.000000000000000E+00
3.661961961961950E-01	0.000000000000000E+00
3.675875875875864E-01	0.000000000000000E+00
3.689789789789778E-01	0.000000000000000E+00
3.703703703703692E-01	0.000000000000000E+00
3.717617617617606E-01	0.000000000000000E+00
3.731531531531520E-01	0.000000000000000E+00
3.745445445445433E-01	0.000000000000000E+00
3.759359359359347E-01	0.000000000000000E+00
3.773273273273261E-01	0.000000000000000E+00
3.787187187187175E-01	0.000000000000000E+00
3.801101101101089E-01	0.000000000000000E+00
3.815015015015003E-01	0.000000000000000E+00
3.828928928928916E-01	0.000000000000000E+00
3.842842842842830E-01	0.000000000000000E+00
3.856756756756744E-01	0.000000000000000E+00
3.870670670670658E-01	0.000000000000000E+00
3.884584584584572E-01	0.000000000000000E+00
3.898498498498486E-01	0.000000000000000E+00
3.912412412412399E-01	0.000000000000000E+00
3.926326326326313E-01	0.000000000000000E+00
3.940240240240227E-01	0.000000000000000E+00
3.954154154154141E-01	0.000000000000000E+00
3.968068068068055E-01	0.000000000000000E+00
3.981981981981969E-01	0.000000000000000E+00
3.995895895895882E-01	0.000000000000000E+00
4.009809809809796E-01	0.000000000000000E+00
4.023723723723710E-01	0.000000000000000E+00
4.037637637637624E-01	0.000000000000000E+00
4.051551551551538E-01	0.000000000000000E+00
4.065465465465452E-01	0.000000000000000E+00
4.079379379379365E-01	0.000000000000000E+00
4.093293293293279E-01	0.000000000000000E+00
4.107207207207193E-01	0.000000000000000E+00
4.121121121121107E-01	0.000000000000000E+00
4.135035035035021E-01	0.000000000000000E+00
4.148948948948935E-01	0.000000000000000E+00
4.162862862862848E-01	0.000000000000000E+00
4.176776776776762E-01	0.000000000000000E+00
4.190690690690676E-01	0.000000000000000E+00
4.204604604604590E-01	0.000000000000000E+00
4.218518518518504E-01	0.000000000000000E+00
4.232432432432418E-01	0.000000000000000E+00
4.246346346346331E-01	0.000000000000000E+00
4.260260260260245E-01	0.000000000000000E+00
4.274174174174159E-01	0.000000000000000E+00
4.288088088088073E-01	0.000000000000000E+00
4.302002002001987E-01	0.000000000000000E+00
4.315915915915901E-01	0.000000000000000E+00
4.329829829829814E-01	0.000000000000000E+00
4.343743743743728E-01	0.000000000000000E+00
4.357657657657642E-01	0.000000000000000E+00
4.371571571571556E-01	0.000000000000000E+00
4.385485485485470E-01	0.000000000000000E+00
4.399399399399384E-01	0.000000000000000E+00
4.413313313313297E-01	0.000000000000000E+00
4.427227227227211E-01	0.000000000000000E+00
4.441141141141125E-01	0.000000000000000E+00
4.455055055055039E-01	0.000000000000000E+00
4.468968968968953E-01	0.000000000000000E+00
4.482882882882867E-01	0.000000000000000E+00
4.496796796796780E-01	0.000000000000000E+00
4.510710710710694E-01	0.000000000000000E+00
4.524624624624608E-01	0.000000000000000E+00
4.538538538538522E-01	0.000000000000000E+00
4.552452452452436E-01	0.000000000000000E+00
4.566366366366350E-01	0.000000000000000E+00
4.580280280280263E-01	0.000000000000000E+00
4.594194194194177E-01	0.000000000000000E+00
4.608108108108091E-01	0.000000000000000E+00
4.622022022022005E-01	0.000000000000000E+00
4.635935935935919E-01	0.000000000000000E+00
4.649849849849833E-01	0.000000000000000E+00
4.663763763763746E-01	0.000000000000000E+00
4.677677677677660E-01	0.000000000000000E+00
4.691591591591574E-01	0.000000000000000E+00
4.705505505505488E-01	0.000000000000000E+00
4.719419419419402E-01	0.000000000000000E+00
4.733333333333316E-01	0.000000000000000E+00
4.747247247247229E-01	0.000000000000000E+00
4.761161161161143E-01	0.000000000000000E+00
4.775075075075057E-01	0.000000000000000E+00
4.788988988988971E-01	0.000000000000000E+00
4.802902902902885E-01	0.000000000000000E+00
4.816816816816799E-01	0.000000000000000E+00
4.830730730730712E-01	0.000000000000000E+00
4.844644644644626E-01	0.000000000000000E+00
4.858558558558540E-01	0.000000000000000E+00
4.872472472472454E-01	0.000000000000000E+00
4.886386386386368E-01	0.000000000000000E+00
4.900300300300282E-01	0.000000000000000E+00
4.914214214214195E-01	0.000000000000000E+00
4.928128128128109E-01	0.000000000000000E+00
4.942042042042023E-01	0.000000000000000E+00
4.955955955955937E-01	0.000000000000000E+00
4.969869869869851E-01	0.000000000000000E+00
4.983783783783765E-01	0.000000000000000E+00
4.997697697697678E-01	0.000000000000000E+00
5.011611611611593E-01	0.000000000000000E+00
5.025525525525507E-01	0.000000000000000E+00
5.039439439439422E-01	0.000000000000000E+00
5.053353353353336E-01	0.000000000000000E+00
5.067267267267250E-01	0.000000000000000E+00
5.081181181181165E-01	0.000000000000000E+00
5.095095095095079E-01	0.000000000000000E+00
5.109009009008993E-01	0.000000000000000E+00
5.122922922922908E-01	0.000000000000000E+00
5.136836836836822E-01	0.000000000000000E+00
5.150750750750737E-01	0.000000000000000E+00
5.164664664664651E-01	0.000000000000000E+00
5.178578578578565E-01	0.000000000000000E+00
5.192492492492480E-01	0.000000000000000E+00
5.206406406406394E-01	0.000000000000000E+00
5.220320320320309E-01	0.000000000000000E+00
5.234234234234223E-01	0.000000000000000E+00
5.248148148148137E-01	0.000000000000000E+00
5.262062062062052E-01	0.000000000000000E+00
5.275975975975966E-01	0.000000000000000E+00
5.289889889889881E-01	0.000000000000000E+00
5.303803803803795E-01	0.000000000000000E+00
5.317717717717709E-01	0.000000000000000E+00
5.331631631631624E-01	0.000000000000000E+00
5.345545545545538E-01	0.000000000000000E+00
5.359459459459452E-01	0.000000000000000E+00
5.373373373373367E-01	0.000000000000000E+00
5.387287287287281E-01	0.000000000000000E+00
5.401201201201196E-01	0.000000000000000E+00
5.415115115115110E-01	0.000000000000000E+00
5.429029029029024E-01	0.000000000000000E+00
5.442942942942939E-01	0.000000000000000E+00
5.456856856856853E-01	0.000000000000000E+00
5.470770770770768E-01	0.000000000000000E+00
5.484684684684682E-01	0.000000000000000E+00
5.498598598598596E-01	0.000000000000000E+00
5.512512512512511E-01	0.000000000000000E+00
5.526426426426425E-01	0.000000000000000E+00
5.540340340340340E-01	0.000000000000000E+00
5.554254254254254E-01	0.000000000000000E+00
5.568168168168168E-01	0.000000000000000E+00
5.582082082082083E-01	0.000000000000000E+00
5.595995995995997E-01	0.000000000000000E+00
5.609909909909911E-01	0.000000000000000E+00
5.623823823823826E-01	0.000000000000000E+00
5.637737737737740E-01	0.000000000000000E+00
5.651651651651655E-01	0.000000000000000E+00
5.665565565565569E-01	0.000000000000000E+00
5.679479479479483E-01	0.000000000000000E+00
5.693393393393398E-01	0.000000000000000E+00
5.707307307307312E-01	0.000000000000000E+00
5.721221221221227E-01	0.000000000000000E+00
5.735135135135141E-01	0.000000000000000E+00
5.749049049049055E-01	0.000000000000000E+00
5.762962962962970E-01	0.000000000000000E+00
5.776876876876884E-01	0.000000000000000E+00
5.790790790790799E-01	0.000000000000000E+00
5.804704704704713E-01	0.000000000000000E+00
5.818618618618627E-01	0.000000000000000E+00
5.832532532532542E-01	0.000000000000000E+00
5.846446446446456E-01	0.000000000000000E+00
5.860360360360370E-01	0.000000000000000E+00
5.874274274274285E-01	0.000000000000000E+00
5.888188188188199E-01	0.000000000000000E+00
5.902102102102114E-01	0.000000000000000E+00
5.916016016016028E-01	0.000000000000000E+00
5.929929929929942E-01	0.000000000000000E+00
5.943843843843857E-01	0.000000000000000E+00
5.957757757757771E-01	0.000000000000000E+00
5.971671671671686E-01	0.000000000000000E+00
5.985585585585600E-01	0.000000000000000E+00
5.999499499499514E-01	0.000000000000000E+00
6.013413413413429E-01	0.000000000000000E+00
6.027327327327343E-01	0.000000000000000E+00
6.041241241241257E-01	0.000000000000000E+00
6.055155155155172E-01	0.000000000000000E+00
6.069069069069086E-01	0.000000000000000E+00
6.082982982983001E-01	0.000000000000000E+00
6.096896896896915E-01	0.000000000000000E+00
6.110810810810829E-01	0.000000000000000E+00
6.124724724724744E-01	0.000000000000000E+00
6.138638638638658E-01	0.000000000000000E+00
6.152552552552573E-01	0.000000000000000E+00
6.166466466466487E-01	0.000000000000000E+00
6.180380380380401E-01	0.000000000000000E+00
6.194294294294316E-01	0.000000000000000E+00
6.208208208208230E-01	0.000000000000000E+00
6.222122122122145E-01	0.000000000000000E+00
6.236036036036059E-01	0.000000000000000E+00
6.249949949949973E-01	0.000000000000000E+00
6.263863863863888E-01	0.000000000000000E+00
6.277777777777802E-01	0.000000000000000E+00
6.291691691691716E-01	0.000000000000000E+00
6.305605605605631E-01	0.000000000000000E+00
6.319519519519545E-01	0.000000000000000E+00
6.333433433433460E-01	0.000000000000000E+00
6.347347347347374E-01	0.000000000000000E+00
6.361261261261288E-01	0.000000000000000E+00
6.375175175175203E-01	0.000000000000000E+00
6.389089089089117E-01	0.000000000000000E+00
