# barionic density, energy density per particle 
1.109109109109109E-02	1.213761333048351E+03
1.218218218218218E-02	1.214401858698361E+03
1.327327327327328E-02	1.214994188279529E+03
1.436436436436437E-02	1.215543694789773E+03
1.545545545545546E-02	1.216054801420378E+03
1.654654654654655E-02	1.216531177728508E+03
1.763763763763764E-02	1.216975964356730E+03
1.872872872872873E-02	1.217391832830308E+03
1.981981981981983E-02	1.217781080128275E+03
2.091091091091092E-02	1.218145736400749E+03
2.200200200200201E-02	1.218487553156246E+03
2.309309309309310E-02	1.218808104040760E+03
2.418418418418419E-02	1.219108772408726E+03
2.527527527527529E-02	1.219390803299040E+03
2.636636636636638E-02	1.219655312511729E+03
2.745745745745747E-02	1.219903309901440E+03
2.854854854854856E-02	1.220135706523969E+03
2.963963963963965E-02	1.220353341755134E+03
3.073073073073074E-02	1.220556964110169E+03
3.182182182182183E-02	1.220747281858998E+03
3.291291291291292E-02	1.220924931054647E+03
3.400400400400401E-02	1.221090498741166E+03
3.509509509509510E-02	1.221244536736856E+03
3.618618618618619E-02	1.221387550038737E+03
3.727727727727728E-02	1.221520004766138E+03
3.836836836836836E-02	1.221642339596074E+03
3.945945945945945E-02	1.221754964535935E+03
4.055055055055054E-02	1.221858260631213E+03
4.164164164164163E-02	1.221952584794282E+03
4.273273273273272E-02	1.222038271921350E+03
4.382382382382381E-02	1.222115636775345E+03
4.491491491491489E-02	1.222184975665352E+03
4.600600600600598E-02	1.222246567949629E+03
4.709709709709707E-02	1.222300677383604E+03
4.818818818818816E-02	1.222347553332928E+03
4.927927927927925E-02	1.222387431867016E+03
5.037037037037034E-02	1.222420534385052E+03
5.146146146146142E-02	1.222447073103681E+03
5.255255255255251E-02	1.222467251763585E+03
5.364364364364360E-02	1.222481261421848E+03
5.473473473473469E-02	1.222489279839217E+03
5.582582582582578E-02	1.222491486596600E+03
5.691691691691687E-02	1.222488042118771E+03
5.800800800800796E-02	1.222479108362148E+03
5.909909909909904E-02	1.222464832298361E+03
6.019019019019013E-02	1.222445362805019E+03
6.128128128128122E-02	1.222420832397960E+03
6.237237237237231E-02	1.222391377247342E+03
6.346346346346340E-02	1.222357124022754E+03
6.455455455455450E-02	1.222318192777116E+03
6.564564564564560E-02	1.222274699308354E+03
6.673673673673669E-02	1.222226757375067E+03
6.782782782782779E-02	1.222174474413524E+03
6.891891891891888E-02	1.222117953848920E+03
7.001001001000998E-02	1.222057295309031E+03
7.110110110110107E-02	1.221992594823551E+03
7.219219219219217E-02	1.221923945009961E+03
7.328328328328326E-02	1.221851434983068E+03
7.437437437437436E-02	1.221775148741450E+03
7.546546546546545E-02	1.221695171721736E+03
7.655655655655655E-02	1.221611584545500E+03
7.764764764764764E-02	1.221524462014480E+03
7.873873873873874E-02	1.221433880971327E+03
7.982982982982983E-02	1.221339913357572E+03
8.092092092092093E-02	1.221242628893809E+03
8.201201201201203E-02	1.221142095181694E+03
8.310310310310312E-02	1.221038379540533E+03
8.419419419419422E-02	1.220931542496460E+03
8.528528528528531E-02	1.220821647755193E+03
8.637637637637641E-02	1.220708755160410E+03
8.746746746746750E-02	1.220592922382634E+03
8.855855855855860E-02	1.220474205488160E+03
8.964964964964969E-02	1.220352659005481E+03
9.074074074074079E-02	1.220228335988187E+03
9.183183183183188E-02	1.220101288074768E+03
9.292292292292298E-02	1.219971565545271E+03
9.401401401401407E-02	1.219839217375212E+03
9.510510510510517E-02	1.219704290267833E+03
9.619619619619627E-02	1.219566829623122E+03
9.728728728728736E-02	1.219426882496440E+03
9.837837837837846E-02	1.219284489879769E+03
9.946946946946955E-02	1.219139696947588E+03
1.005605605605606E-01	1.218992542266731E+03
1.016516516516517E-01	1.218843068782817E+03
1.027427427427428E-01	1.218691314878428E+03
1.038338338338339E-01	1.218537317709041E+03
1.049249249249250E-01	1.218381116093073E+03
1.060160160160161E-01	1.218222746306421E+03
1.071071071071072E-01	1.218062243851902E+03
1.081981981981983E-01	1.217899643485708E+03
1.092892892892894E-01	1.217734979242580E+03
1.103803803803805E-01	1.217568284460138E+03
1.114714714714716E-01	1.217399590367704E+03
1.125625625625627E-01	1.217228929487229E+03
1.136536536536538E-01	1.217056333701049E+03
1.147447447447449E-01	1.216881830987676E+03
1.158358358358360E-01	1.216705453476235E+03
1.169269269269271E-01	1.216527227516704E+03
1.180180180180182E-01	1.216347183615186E+03
1.191091091091093E-01	1.216165348915162E+03
1.202002002002004E-01	1.215981749174997E+03
1.212912912912915E-01	1.215796412261307E+03
1.223823823823826E-01	1.215609364022323E+03
1.234734734734736E-01	1.215420629881400E+03
1.245645645645647E-01	1.215230234849513E+03
1.256556556556558E-01	1.215038203344024E+03
1.267467467467469E-01	1.214844558358291E+03
1.278378378378380E-01	1.214649324745004E+03
1.289289289289291E-01	1.214452525651714E+03
1.300200200200202E-01	1.214254182005348E+03
1.311111111111113E-01	1.214054318047430E+03
1.322022022022024E-01	1.213852953971366E+03
1.332932932932935E-01	1.213650111712111E+03
1.343843843843846E-01	1.213445812572706E+03
1.354754754754757E-01	1.213240076875079E+03
1.365665665665668E-01	1.213032924685382E+03
1.376576576576579E-01	1.212824375820719E+03
1.387487487487490E-01	1.212614449855635E+03
1.398398398398401E-01	1.212403166128516E+03
1.409309309309312E-01	1.212190543747770E+03
1.420220220220223E-01	1.211976600537664E+03
1.431131131131134E-01	1.211761354968055E+03
1.442042042042045E-01	1.211544825352130E+03
1.452952952952956E-01	1.211327028895709E+03
1.463863863863867E-01	1.211107982722708E+03
1.474774774774777E-01	1.210887704532847E+03
1.485685685685688E-01	1.210666210850001E+03
1.496596596596599E-01	1.210443518052089E+03
1.507507507507510E-01	1.210219642374457E+03
1.518418418418421E-01	1.209994599913352E+03
1.529329329329332E-01	1.209768406629155E+03
1.540240240240243E-01	1.209541078349671E+03
1.551151151151154E-01	1.209312629149058E+03
1.562062062062065E-01	1.209083075620479E+03
1.572972972972976E-01	1.208852431438038E+03
1.583883883883887E-01	1.208620712378166E+03
1.594794794794798E-01	1.208387932193770E+03
1.605705705705709E-01	1.208154104988098E+03
1.616616616616620E-01	1.207919245312692E+03
1.627527527527531E-01	1.207683367010454E+03
1.638438438438442E-01	1.207446483853746E+03
1.649349349349353E-01	1.207208608598929E+03
1.660260260260264E-01	1.206969755379601E+03
1.671171171171175E-01	1.206729937758073E+03
1.682082082082086E-01	1.206489167299015E+03
1.692992992992997E-01	1.206247458346342E+03
1.703903903903908E-01	1.206004823070619E+03
1.714814814814818E-01	1.205761273509008E+03
1.725725725725729E-01	1.205516822693294E+03
1.736636636636640E-01	1.205271482817954E+03
1.747547547547551E-01	1.205025266055886E+03
1.758458458458462E-01	1.204778183972150E+03
1.769369369369373E-01	1.204530248607981E+03
1.780280280280284E-01	1.204281472403095E+03
1.791191191191195E-01	1.204031865606651E+03
1.802102102102106E-01	1.203781441037956E+03
1.813013013013017E-01	1.203530209518927E+03
1.823923923923928E-01	1.203278181958376E+03
1.834834834834839E-01	1.203025370012475E+03
1.845745745745750E-01	1.202771784708408E+03
1.856656656656661E-01	1.202517436735110E+03
1.867567567567572E-01	1.202262336835009E+03
1.878478478478483E-01	1.202006496412198E+03
1.889389389389394E-01	1.201749925361780E+03
1.900300300300305E-01	1.201492635094806E+03
1.911211211211216E-01	1.201234634976204E+03
1.922122122122127E-01	1.200975936173593E+03
1.933033033033038E-01	1.200716548907933E+03
1.943943943943948E-01	1.200456483395043E+03
1.954854854854859E-01	1.200195749896670E+03
1.965765765765770E-01	1.199934357871196E+03
1.976676676676681E-01	1.199672318032223E+03
1.987587587587592E-01	1.199409640049507E+03
1.998498498498503E-01	1.199146334149803E+03
2.009409409409414E-01	1.198882409319933E+03
2.020320320320325E-01	1.198617875998594E+03
2.031231231231236E-01	1.198352743807595E+03
2.042142142142147E-01	1.198087022440605E+03
2.053053053053058E-01	1.197820720982590E+03
2.063963963963969E-01	1.197553849482925E+03
2.074874874874880E-01	1.197286417425894E+03
2.085785785785791E-01	1.197018434129786E+03
2.096696696696702E-01	1.196749908771368E+03
2.107607607607613E-01	1.196480851070124E+03
2.118518518518524E-01	1.196211270274398E+03
2.129429429429435E-01	1.195941175726771E+03
2.140340340340346E-01	1.195670576506073E+03
2.151251251251257E-01	1.195399481743882E+03
2.162162162162168E-01	1.195127901122723E+03
2.173073073073079E-01	1.194855843378882E+03
2.183983983983989E-01	1.194583317682370E+03
2.194894894894900E-01	1.194310333376334E+03
2.205805805805811E-01	1.194036899539414E+03
2.216716716716722E-01	1.193763025336055E+03
2.227627627627633E-01	1.193488719240284E+03
2.238538538538544E-01	1.193213991224466E+03
2.249449449449455E-01	1.192938849537333E+03
2.260360360360366E-01	1.192663303796330E+03
2.271271271271277E-01	1.192387362841808E+03
2.282182182182188E-01	1.192111035648845E+03
2.293093093093099E-01	1.191834331325268E+03
2.304004004004010E-01	1.191557259109632E+03
2.314914914914921E-01	1.191279827449585E+03
2.325825825825832E-01	1.191002046163891E+03
2.336736736736743E-01	1.190723923676084E+03
2.347647647647654E-01	1.190445469322013E+03
2.358558558558565E-01	1.190166692271469E+03
2.369469469469476E-01	1.189887601482535E+03
2.380380380380387E-01	1.189608205936079E+03
2.391291291291298E-01	1.189328515350529E+03
2.402202202202209E-01	1.189048538025908E+03
2.413113113113119E-01	1.188768283784775E+03
2.424024024024030E-01	1.188487761694869E+03
2.434934934934941E-01	1.188206980980999E+03
2.445845845845852E-01	1.187925951034204E+03
2.456756756756763E-01	1.187644680784318E+03
2.467667667667674E-01	1.187363180107372E+03
2.478578578578585E-01	1.187081457852990E+03
2.489489489489496E-01	1.186799523857601E+03
2.500400400400407E-01	1.186517387518531E+03
2.511311311311318E-01	1.186235058416672E+03
2.522222222222228E-01	1.185952545928881E+03
2.533133133133139E-01	1.185669859842930E+03
2.544044044044050E-01	1.185387009796375E+03
2.554954954954960E-01	1.185104005668509E+03
2.565865865865871E-01	1.184820857156184E+03
2.576776776776782E-01	1.184537574156273E+03
2.587687687687693E-01	1.184254166763065E+03
2.598598598598603E-01	1.183970644756376E+03
2.609509509509514E-01	1.183687018577007E+03
2.620420420420425E-01	1.183403297871543E+03
2.631331331331335E-01	1.183119493408483E+03
2.642242242242246E-01	1.182835615382794E+03
2.653153153153157E-01	1.182551674150166E+03
2.664064064064067E-01	1.182267680313932E+03
2.674974974974978E-01	1.181983644477880E+03
2.685885885885889E-01	1.181699577327151E+03
2.696796796796799E-01	1.181415489711613E+03
2.707707707707710E-01	1.181131392536674E+03
2.718618618618621E-01	1.180847296852735E+03
2.729529529529531E-01	1.180563213782341E+03
2.740440440440442E-01	1.180279154565641E+03
2.751351351351353E-01	1.179995130651102E+03
2.762262262262263E-01	1.179711153465849E+03
2.773173173173174E-01	1.179427234618138E+03
2.784084084084085E-01	1.179143385958732E+03
2.794994994994995E-01	1.178859619292328E+03
2.805905905905906E-01	1.178575946685986E+03
2.816816816816817E-01	1.178292380284702E+03
2.827727727727727E-01	1.178008932428704E+03
2.838638638638638E-01	1.177725615602548E+03
2.849549549549549E-01	1.177442442344501E+03
2.860460460460459E-01	1.177159425514078E+03
2.871371371371370E-01	1.176876578023294E+03
2.882282282282281E-01	1.176593912983475E+03
2.893193193193191E-01	1.176311443668920E+03
2.904104104104102E-01	1.176029183496326E+03
2.915015015015013E-01	1.175747146152107E+03
2.925925925925923E-01	1.175465345412218E+03
2.936836836836834E-01	1.175183795311926E+03
2.947747747747745E-01	1.174902510029163E+03
2.958658658658656E-01	1.174621503959057E+03
2.969569569569566E-01	1.174340791685614E+03
2.980480480480477E-01	1.174060387984012E+03
2.991391391391388E-01	1.173780307931183E+03
3.002302302302298E-01	1.173500566679807E+03
3.013213213213209E-01	1.173221179719848E+03
3.024124124124120E-01	1.172942162646892E+03
3.035035035035030E-01	1.172663531430400E+03
3.045945945945941E-01	1.172385302143461E+03
3.056856856856852E-01	1.172107491142564E+03
3.067767767767762E-01	1.171830115060867E+03
3.078678678678673E-01	1.171553190661850E+03
3.089589589589584E-01	1.171276735081140E+03
3.100500500500494E-01	1.171000765648963E+03
3.111411411411405E-01	1.170725299904417E+03
3.122322322322316E-01	1.170450355762612E+03
3.133233233233226E-01	1.170175951290309E+03
3.144144144144137E-01	1.169902104837719E+03
3.155055055055048E-01	1.169628835047996E+03
3.165965965965958E-01	1.169356160853938E+03
3.176876876876869E-01	1.169084101385571E+03
3.187787787787780E-01	1.168812676129863E+03
3.198698698698690E-01	1.168541904782008E+03
3.209609609609601E-01	1.168271807328831E+03
3.220520520520512E-01	1.168002404045463E+03
3.231431431431422E-01	1.167733715492031E+03
3.242342342342333E-01	1.167465762510374E+03
3.253253253253244E-01	1.167198566212092E+03
3.264164164164154E-01	1.166932147924023E+03
3.275075075075065E-01	1.166666529385641E+03
3.285985985985976E-01	1.166401732455389E+03
3.296896896896886E-01	1.166137779408008E+03
3.307807807807797E-01	1.165874692658793E+03
3.318718718718708E-01	1.165612494997786E+03
3.329629629629619E-01	1.165351209402746E+03
3.340540540540529E-01	1.165090859128433E+03
3.351451451451440E-01	1.164831467711452E+03
3.362362362362351E-01	1.164573058896854E+03
3.373273273273261E-01	1.164315656673846E+03
3.384184184184172E-01	1.164059285272842E+03
3.395095095095083E-01	1.163803969162467E+03
3.406006006005993E-01	1.163549732965794E+03
3.416916916916904E-01	1.163296601585135E+03
3.427827827827815E-01	1.163044600055830E+03
3.438738738738725E-01	1.162793753627383E+03
3.449649649649636E-01	1.162544087685187E+03
3.460560560560547E-01	1.162295627800641E+03
3.471471471471457E-01	1.162048399673097E+03
3.482382382382368E-01	1.161802429089504E+03
3.493293293293279E-01	1.161557742009034E+03
3.504204204204189E-01	1.161314364411236E+03
3.515115115115100E-01	1.161072322404950E+03
3.526026026026011E-01	1.160831642120191E+03
3.536936936936921E-01	1.160592349708481E+03
3.547847847847832E-01	1.160354471374263E+03
3.558758758758743E-01	1.160118033246660E+03
3.569669669669653E-01	1.159883061496527E+03
3.580580580580564E-01	1.159649582205262E+03
3.591491491491475E-01	1.159417621337402E+03
3.602402402402385E-01	1.159187204828640E+03
3.613313313313296E-01	1.158958358449792E+03
3.624224224224207E-01	1.158731107793912E+03
3.635135135135117E-01	1.158505478347703E+03
3.646046046046028E-01	1.158281495340869E+03
3.656956956956939E-01	1.158059183784732E+03
3.667867867867849E-01	1.157838568448794E+03
3.678778778778760E-01	1.157619673829915E+03
3.689689689689671E-01	1.157402524122995E+03
3.700600600600581E-01	1.157187143167242E+03
3.711511511511492E-01	1.156973554474934E+03
3.722422422422403E-01	1.156761781199180E+03
3.733333333333314E-01	1.156551846043471E+03
3.744244244244224E-01	1.156343771321773E+03
3.755155155155135E-01	1.156137578908502E+03
3.766066066066046E-01	1.155933290192640E+03
3.776976976976956E-01	1.155730926078053E+03
3.787887887887867E-01	1.155530506966529E+03
3.798798798798778E-01	1.155332052742073E+03
3.809709709709688E-01	1.155135582690901E+03
3.820620620620599E-01	1.154941115627314E+03
3.831531531531510E-01	1.154748669717785E+03
3.842442442442420E-01	1.154558262553236E+03
3.853353353353331E-01	1.154369911139572E+03
3.864264264264242E-01	1.154183631861339E+03
3.875175175175152E-01	1.153999440464827E+03
3.886086086086063E-01	1.153817352051698E+03
3.896996996996974E-01	1.153637381106991E+03
3.907907907907884E-01	1.153459541471003E+03
3.918818818818795E-01	1.153283846296936E+03
3.929729729729706E-01	1.153110308087572E+03
3.940640640640616E-01	1.152938938715982E+03
3.951551551551527E-01	1.152769749352610E+03
3.962462462462438E-01	1.152602750537365E+03
3.973373373373348E-01	1.152437952141715E+03
3.984284284284259E-01	1.152275363336395E+03
3.995195195195170E-01	1.152114992709865E+03
4.006106106106080E-01	1.151956848151955E+03
4.017017017016991E-01	1.151800936924145E+03
4.027927927927902E-01	1.151647265622355E+03
4.038838838838812E-01	1.151495840246502E+03
4.049749749749723E-01	1.151346666161387E+03
4.060660660660634E-01	1.151199748086540E+03
4.071571571571544E-01	1.151055090197593E+03
4.082482482482455E-01	1.150912696022542E+03
4.093393393393366E-01	1.150772568519729E+03
4.104304304304277E-01	1.150634710094004E+03
4.115215215215187E-01	1.150499122546036E+03
4.126126126126098E-01	1.150365807181424E+03
4.137037037037009E-01	1.150234764727534E+03
4.147947947947919E-01	1.150105995402108E+03
4.158858858858830E-01	1.149979498923779E+03
4.169769769769741E-01	1.149855274506339E+03
4.180680680680651E-01	1.149733320858576E+03
4.191591591591562E-01	1.149613636259129E+03
4.202502502502473E-01	1.149496218515069E+03
4.213413413413383E-01	1.149381064981269E+03
4.224324324324294E-01	1.149268172589149E+03
4.235235235235205E-01	1.149157537859023E+03
4.246146146146115E-01	1.149049156912569E+03
4.257057057057026E-01	1.148943025485474E+03
4.267967967967937E-01	1.148839138940244E+03
4.278878878878847E-01	1.148737492279110E+03
4.289789789789758E-01	1.148638080157067E+03
4.300700700700669E-01	1.148540896895043E+03
4.311611611611579E-01	1.148445936493134E+03
4.322522522522490E-01	1.148353192643974E+03
4.333433433433401E-01	1.148262658746137E+03
4.344344344344311E-01	1.148174327917654E+03
4.355255255255222E-01	1.148088193009562E+03
4.366166166166133E-01	1.148004246619535E+03
4.377077077077043E-01	1.147922481060022E+03
4.387987987987954E-01	1.147842888469469E+03
4.398898898898865E-01	1.147765460689584E+03
4.409809809809775E-01	1.147690189415687E+03
4.420720720720686E-01	1.147617066102133E+03
4.431631631631597E-01	1.147546082019029E+03
4.442542542542507E-01	1.147477228244660E+03
4.453453453453418E-01	1.147410495690163E+03
4.464364364364329E-01	1.147345875107511E+03
4.475275275275239E-01	1.147283357081531E+03
4.486186186186150E-01	1.147222932057772E+03
4.497097097097061E-01	1.147164590344710E+03
4.508008008007972E-01	1.147108322108780E+03
4.518918918918882E-01	1.147054117401852E+03
4.529829829829793E-01	1.147001966172008E+03
4.540740740740704E-01	1.146951858241508E+03
4.551651651651614E-01	1.146903783346688E+03
4.562562562562525E-01	1.146857731120504E+03
4.573473473473436E-01	1.146813691119698E+03
4.584384384384346E-01	1.146771652817942E+03
4.595295295295257E-01	1.146731605602906E+03
4.606206206206168E-01	1.146693538817717E+03
4.617117117117078E-01	1.146657441728285E+03
4.628028028027989E-01	1.146623303548597E+03
4.638938938938900E-01	1.146591113444841E+03
4.649849849849810E-01	1.146560860522146E+03
4.660760760760721E-01	1.146532533872848E+03
4.671671671671632E-01	1.146506122528671E+03
4.682582582582542E-01	1.146481615499499E+03
4.693493493493453E-01	1.146459001771868E+03
4.704404404404364E-01	1.146438270305154E+03
4.715315315315274E-01	1.146419410040739E+03
4.726226226226185E-01	1.146402409905595E+03
4.737137137137096E-01	1.146387258815937E+03
4.748048048048006E-01	1.146373945680759E+03
4.758958958958917E-01	1.146362459405367E+03
4.769869869869828E-01	1.146352788891582E+03
4.780780780780738E-01	1.146344923044147E+03
4.791691691691649E-01	1.146338850781513E+03
4.802602602602560E-01	1.146334561022336E+03
4.813513513513470E-01	1.146332042693346E+03
4.824424424424381E-01	1.146331284743282E+03
4.835335335335292E-01	1.146332276134595E+03
4.846246246246202E-01	1.146335005844584E+03
4.857157157157113E-01	1.146339462874661E+03
4.868068068068024E-01	1.146345636253533E+03
4.878978978978935E-01	1.146353515016394E+03
4.889889889889845E-01	1.146363088252158E+03
4.900800800800756E-01	1.146374345061170E+03
4.911711711711667E-01	1.146387274581191E+03
4.922622622622577E-01	1.146401865974059E+03
4.933533533533488E-01	1.146418108448499E+03
4.944444444444399E-01	1.146435991236862E+03
4.955355355355309E-01	1.146455503618608E+03
4.966266266266220E-01	1.146476634900018E+03
4.977177177177131E-01	1.146499374439587E+03
4.988088088088041E-01	1.146523711633401E+03
4.998998998998952E-01	1.146549635902974E+03
5.009909909909863E-01	1.146577136741366E+03
5.020820820820774E-01	1.146606203664671E+03
5.031731731731685E-01	1.146636826246258E+03
5.042642642642595E-01	1.146668994091586E+03
