#  barionic density, energy density per particle 
1.109109109109109E-02	1.203765795374268E+03
1.218218218218218E-02	1.205301563371906E+03
1.327327327327328E-02	1.206641957909633E+03
1.436436436436437E-02	1.207825885803595E+03
1.545545545545546E-02	1.208881834719345E+03
1.654654654654655E-02	1.209831203994061E+03
1.763763763763764E-02	1.210690461193899E+03
1.872872872872873E-02	1.211472506235301E+03
1.981981981981983E-02	1.212187617643433E+03
2.091091091091092E-02	1.212844128207684E+03
2.200200200200201E-02	1.213448855986843E+03
2.309309309309310E-02	1.214007472196009E+03
2.418418418418419E-02	1.214524725605510E+03
2.527527527527529E-02	1.215004642017584E+03
2.636636636636638E-02	1.215450659154750E+03
2.745745745745747E-02	1.215865738641183E+03
2.854854854854856E-02	1.216252447031576E+03
2.963963963963965E-02	1.216613030809423E+03
3.073073073073074E-02	1.216949454057623E+03
3.182182182182183E-02	1.217263463851103E+03
3.291291291291292E-02	1.217556604019502E+03
3.400400400400401E-02	1.217830252663846E+03
3.509509509509510E-02	1.218085650149376E+03
3.618618618618619E-02	1.218323909793786E+03
3.727727727727728E-02	1.218546036186565E+03
3.836836836836836E-02	1.218752943123593E+03
3.945945945945945E-02	1.218945462808222E+03
4.055055055055054E-02	1.219124354004421E+03
4.164164164164163E-02	1.219290311719920E+03
4.273273273273272E-02	1.219443974379823E+03
4.382382382382381E-02	1.219585930010909E+03
4.491491491491489E-02	1.219716721595816E+03
4.600600600600598E-02	1.219836851727767E+03
4.709709709709707E-02	1.219946786672488E+03
4.818818818818816E-02	1.220046959926360E+03
4.927927927927925E-02	1.220137775343765E+03
5.037037037037034E-02	1.220219608578350E+03
5.146146146146142E-02	1.220292812074182E+03
5.255255255255251E-02	1.220357717184356E+03
5.364364364364360E-02	1.220414633335647E+03
5.473473473473469E-02	1.220463849008248E+03
5.582582582582578E-02	1.220505641417126E+03
5.691691691691687E-02	1.220540265796866E+03
5.800800800800796E-02	1.220567967984825E+03
5.909909909909904E-02	1.220588975964371E+03
6.019019019019013E-02	1.220603510172375E+03
6.128128128128122E-02	1.220611773840536E+03
6.237237237237231E-02	1.220613964967185E+03
6.346346346346340E-02	1.220610269415218E+03
6.455455455455450E-02	1.220600863045213E+03
6.564564564564560E-02	1.220585913520205E+03
6.673673673673669E-02	1.220565581998993E+03
6.782782782782779E-02	1.220540021062945E+03
6.891891891891888E-02	1.220509376383641E+03
7.001001001000998E-02	1.220473787162062E+03
7.110110110110107E-02	1.220433386532759E+03
7.219219219219217E-02	1.220388301936185E+03
7.328328328328326E-02	1.220338655308407E+03
7.437437437437436E-02	1.220284562361241E+03
7.546546546546545E-02	1.220226136604627E+03
7.655655655655655E-02	1.220163485899835E+03
7.764764764764764E-02	1.220096712031836E+03
7.873873873873874E-02	1.220025915471910E+03
7.982982982982983E-02	1.219951191463907E+03
8.092092092092093E-02	1.219872631728687E+03
8.201201201201203E-02	1.219790324651992E+03
8.310310310310312E-02	1.219704356491318E+03
8.419419419419422E-02	1.219614807629902E+03
8.528528528528531E-02	1.219521758583916E+03
8.637637637637641E-02	1.219425285929240E+03
8.746746746746750E-02	1.219325463386588E+03
8.855855855855860E-02	1.219222362241706E+03
8.964964964964969E-02	1.219116051462458E+03
9.074074074074079E-02	1.219006597808691E+03
9.183183183183188E-02	1.218894065935691E+03
9.292292292292298E-02	1.218778518491408E+03
9.401401401401407E-02	1.218660016208166E+03
9.510510510510517E-02	1.218538617371830E+03
9.619619619619627E-02	1.218414378455647E+03
9.728728728728736E-02	1.218287355968160E+03
9.837837837837846E-02	1.218157601811846E+03
9.946946946946955E-02	1.218025169552796E+03
1.005605605605606E-01	1.217890107891246E+03
1.016516516516517E-01	1.217752467401245E+03
1.027427427427428E-01	1.217612295106485E+03
1.038338338338339E-01	1.217469636545630E+03
1.049249249249250E-01	1.217324537584740E+03
1.060160160160161E-01	1.217177041864396E+03
1.071071071071072E-01	1.217027191913557E+03
1.081981981981983E-01	1.216875029193230E+03
1.092892892892894E-01	1.216720594138106E+03
1.103803803803805E-01	1.216563926196106E+03
1.114714714714716E-01	1.216405062970965E+03
1.125625625625627E-01	1.216244042361900E+03
1.136536536536538E-01	1.216080901385917E+03
1.147447447447449E-01	1.215915674148342E+03
1.158358358358360E-01	1.215748396907461E+03
1.169269269269271E-01	1.215579101863652E+03
1.180180180180182E-01	1.215407823417888E+03
1.191091091091093E-01	1.215234593459860E+03
1.202002002002004E-01	1.215059442619463E+03
1.212912912912915E-01	1.214882402494900E+03
1.223823823823826E-01	1.214703503056501E+03
1.234734734734736E-01	1.214522773666600E+03
1.245645645645647E-01	1.214340243100428E+03
1.256556556556558E-01	1.214155939442393E+03
1.267467467467469E-01	1.213969889564027E+03
1.278378378378380E-01	1.213782121238805E+03
1.289289289289291E-01	1.213592660871631E+03
1.300200200200202E-01	1.213401533168109E+03
1.311111111111113E-01	1.213208764710778E+03
1.322022022022024E-01	1.213014379222720E+03
1.332932932932935E-01	1.212818401310342E+03
1.343843843843846E-01	1.212620854941731E+03
1.354754754754757E-01	1.212421763225387E+03
1.365665665665668E-01	1.212221148887269E+03
1.376576576576579E-01	1.212019034283036E+03
1.387487487487490E-01	1.211815441409753E+03
1.398398398398401E-01	1.211610391917268E+03
1.409309309309312E-01	1.211403907119173E+03
1.420220220220223E-01	1.211196007304713E+03
1.431131131131134E-01	1.210986713012558E+03
1.442042042042045E-01	1.210776044511695E+03
1.452952952952956E-01	1.210564021177414E+03
1.463863863863867E-01	1.210350662172299E+03
1.474774774774777E-01	1.210135986889995E+03
1.485685685685688E-01	1.209920013797578E+03
1.496596596596599E-01	1.209702761122194E+03
1.507507507507510E-01	1.209484246858437E+03
1.518418418418421E-01	1.209264488775511E+03
1.529329329329332E-01	1.209043504424162E+03
1.540240240240243E-01	1.208821311143415E+03
1.551151151151154E-01	1.208597924971780E+03
1.562062062062065E-01	1.208373363527824E+03
1.572972972972976E-01	1.208147642350056E+03
1.583883883883887E-01	1.207920778288494E+03
1.594794794794798E-01	1.207692786719176E+03
1.605705705705709E-01	1.207463683151680E+03
1.616616616616620E-01	1.207233483302499E+03
1.627527527527531E-01	1.207002202311406E+03
1.638438438438442E-01	1.206769855177777E+03
1.649349349349353E-01	1.206536456115449E+03
1.660260260260264E-01	1.206302020194722E+03
1.671171171171175E-01	1.206066562013262E+03
1.682082082082086E-01	1.205830094711748E+03
1.692992992992997E-01	1.205592633266244E+03
1.703903903903908E-01	1.205354191079776E+03
1.714814814814818E-01	1.205114781386789E+03
1.725725725725729E-01	1.204874418039492E+03
1.736636636636640E-01	1.204633114241559E+03
1.747547547547551E-01	1.204390883114748E+03
1.758458458458462E-01	1.204147737291784E+03
1.769369369369373E-01	1.203903689674366E+03
1.780280280280284E-01	1.203658753384415E+03
1.791191191191195E-01	1.203412939949239E+03
1.802102102102106E-01	1.203166262642679E+03
1.813013013013017E-01	1.202918733281468E+03
1.823923923923928E-01	1.202670363687945E+03
1.834834834834839E-01	1.202421166160770E+03
1.845745745745750E-01	1.202171152505401E+03
1.856656656656661E-01	1.201920334238862E+03
1.867567567567572E-01	1.201668722868613E+03
1.878478478478483E-01	1.201416330328987E+03
1.889389389389394E-01	1.201163167435730E+03
1.900300300300305E-01	1.200909246044565E+03
1.911211211211216E-01	1.200654576507052E+03
1.922122122122127E-01	1.200399170425822E+03
1.933033033033038E-01	1.200143038688179E+03
1.943943943943948E-01	1.199886192140866E+03
1.954854854854859E-01	1.199628641628703E+03
1.965765765765770E-01	1.199370397381437E+03
1.976676676676681E-01	1.199111470503631E+03
1.987587587587592E-01	1.198851871313421E+03
1.998498498498503E-01	1.198591610502853E+03
2.009409409409414E-01	1.198330697832092E+03
2.020320320320325E-01	1.198069144090082E+03
2.031231231231236E-01	1.197806959444295E+03
2.042142142142147E-01	1.197544154088668E+03
2.053053053053058E-01	1.197280737745203E+03
2.063963963963969E-01	1.197016720819455E+03
2.074874874874880E-01	1.196752113280046E+03
2.085785785785791E-01	1.196486924951049E+03
2.096696696696702E-01	1.196221165530130E+03
2.107607607607613E-01	1.195954845096302E+03
2.118518518518524E-01	1.195687973361324E+03
2.129429429429435E-01	1.195420560088542E+03
2.140340340340346E-01	1.195152614827595E+03
2.151251251251257E-01	1.194884147150142E+03
2.162162162162168E-01	1.194615167024079E+03
2.173073073073079E-01	1.194345683695716E+03
2.183983983983989E-01	1.194075706720854E+03
2.194894894894900E-01	1.193805245772573E+03
2.205805805805811E-01	1.193534310313387E+03
2.216716716716722E-01	1.193262909858910E+03
2.227627627627633E-01	1.192991053392013E+03
2.238538538538544E-01	1.192718751017889E+03
2.249449449449455E-01	1.192446011528659E+03
2.260360360360366E-01	1.192172844744591E+03
2.271271271271277E-01	1.191899259889097E+03
2.282182182182188E-01	1.191625266280213E+03
2.293093093093099E-01	1.191350873330732E+03
2.304004004004010E-01	1.191076090548242E+03
2.314914914914921E-01	1.190800926829445E+03
2.325825825825832E-01	1.190525392117501E+03
2.336736736736743E-01	1.190249495281572E+03
2.347647647647654E-01	1.189973245888187E+03
2.358558558558565E-01	1.189696653374604E+03
2.369469469469476E-01	1.189419727012942E+03
2.380380380380387E-01	1.189142476091167E+03
2.391291291291298E-01	1.188864910469046E+03
2.402202202202209E-01	1.188587038905858E+03
2.413113113113119E-01	1.188308871343986E+03
2.424024024024030E-01	1.188030417141222E+03
2.434934934934941E-01	1.187751685779514E+03
2.445845845845852E-01	1.187472686873632E+03
2.456756756756763E-01	1.187193429680199E+03
2.467667667667674E-01	1.186913924201670E+03
2.478578578578585E-01	1.186634179639332E+03
2.489489489489496E-01	1.186354205975253E+03
2.500400400400407E-01	1.186074012852266E+03
2.511311311311318E-01	1.185793610064336E+03
2.522222222222228E-01	1.185513007250746E+03
2.533133133133139E-01	1.185232214383532E+03
2.544044044044050E-01	1.184951241324035E+03
2.554954954954960E-01	1.184670098134563E+03
2.565865865865871E-01	1.184388794741608E+03
2.576776776776782E-01	1.184107341240742E+03
2.587687687687693E-01	1.183825747896083E+03
2.598598598598603E-01	1.183544024731057E+03
2.609509509509514E-01	1.183262182310557E+03
2.620420420420425E-01	1.182980230573876E+03
2.631331331331335E-01	1.182698180374885E+03
2.642242242242246E-01	1.182416042120044E+03
2.653153153153157E-01	1.182133826358814E+03
2.664064064064067E-01	1.181851543855246E+03
2.674974974974978E-01	1.181569205389088E+03
2.685885885885889E-01	1.181286821821600E+03
2.696796796796799E-01	1.181004404164028E+03
2.707707707707710E-01	1.180721963489670E+03
2.718618618618621E-01	1.180439511007337E+03
2.729529529529531E-01	1.180157058002665E+03
2.740440440440442E-01	1.179874615875822E+03
2.751351351351353E-01	1.179592196216734E+03
2.762262262262263E-01	1.179309810617470E+03
2.773173173173174E-01	1.179027470838826E+03
2.784084084084085E-01	1.178745188862015E+03
2.794994994994995E-01	1.178462976651658E+03
2.805905905905906E-01	1.178180846410597E+03
2.816816816816817E-01	1.177898810428550E+03
2.827727727727727E-01	1.177616881179792E+03
2.838638638638638E-01	1.177335071281870E+03
2.849549549549549E-01	1.177053393420838E+03
2.860460460460459E-01	1.176771860574450E+03
2.871371371371370E-01	1.176490485789474E+03
2.882282282282281E-01	1.176209282304507E+03
2.893193193193191E-01	1.175928263520462E+03
2.904104104104102E-01	1.175647442983995E+03
2.915015015015013E-01	1.175366834494993E+03
2.925925925925923E-01	1.175086451956250E+03
2.936836836836834E-01	1.174806309516629E+03
2.947747747747745E-01	1.174526421473823E+03
2.958658658658656E-01	1.174246802337707E+03
2.969569569569566E-01	1.173967466807211E+03
2.980480480480477E-01	1.173688429772885E+03
2.991391391391388E-01	1.173409706411361E+03
3.002302302302298E-01	1.173131311994464E+03
3.013213213213209E-01	1.172853262111701E+03
3.024124124124120E-01	1.172575572474109E+03
3.035035035035030E-01	1.172298259143241E+03
3.045945945945941E-01	1.172021338301620E+03
3.056856856856852E-01	1.171744826406489E+03
3.067767767767762E-01	1.171468740184941E+03
3.078678678678673E-01	1.171193096509081E+03
3.089589589589584E-01	1.170917912603792E+03
3.100500500500494E-01	1.170643205895178E+03
3.111411411411405E-01	1.170368994023066E+03
3.122322322322316E-01	1.170095294985464E+03
3.133233233233226E-01	1.169822126945816E+03
3.144144144144137E-01	1.169549508346863E+03
3.155055055055048E-01	1.169277457919385E+03
3.165965965965958E-01	1.169005994679811E+03
3.176876876876869E-01	1.168735137850437E+03
3.187787787787780E-01	1.168464906998163E+03
3.198698698698690E-01	1.168195321905716E+03
3.209609609609601E-01	1.167926402644218E+03
3.220520520520512E-01	1.167658169570494E+03
3.231431431431422E-01	1.167390643324344E+03
3.242342342342333E-01	1.167123844825766E+03
3.253253253253244E-01	1.166857795264500E+03
3.264164164164154E-01	1.166592516052136E+03
3.275075075075065E-01	1.166328028994909E+03
3.285985985985976E-01	1.166064356036193E+03
3.296896896896886E-01	1.165801519516979E+03
3.307807807807797E-01	1.165539541933510E+03
3.318718718718708E-01	1.165278446142640E+03
3.329629629629619E-01	1.165018255196915E+03
3.340540540540529E-01	1.164758992422509E+03
3.351451451451440E-01	1.164500681423012E+03
3.362362362362351E-01	1.164243346013885E+03
3.373273273273261E-01	1.163987010253177E+03
3.384184184184172E-01	1.163731698438059E+03
3.395095095095083E-01	1.163477435101272E+03
3.406006006005993E-01	1.163224244935742E+03
3.416916916916904E-01	1.162972152904186E+03
3.427827827827815E-01	1.162721184108092E+03
3.438738738738725E-01	1.162471363858466E+03
3.449649649649636E-01	1.162222717604785E+03
3.460560560560547E-01	1.161975270978154E+03
3.471471471471457E-01	1.161729049738005E+03
3.482382382382368E-01	1.161484079734383E+03
3.493293293293279E-01	1.161240386981730E+03
3.504204204204189E-01	1.160997997521466E+03
3.515115115115100E-01	1.160756937517360E+03
3.526026026026011E-01	1.160517233156884E+03
3.536936936936921E-01	1.160278910649390E+03
3.547847847847832E-01	1.160041996252120E+03
3.558758758758743E-01	1.159806516153061E+03
3.569669669669653E-01	1.159572496573637E+03
3.580580580580564E-01	1.159339963648729E+03
3.591491491491475E-01	1.159108943399609E+03
3.602402402402385E-01	1.158879461810629E+03
3.613313313313296E-01	1.158651544704556E+03
3.624224224224207E-01	1.158425217728424E+03
3.635135135135117E-01	1.158200506415344E+03
3.646046046046028E-01	1.157977436046403E+03
3.656956956956939E-01	1.157756031682874E+03
3.667867867867849E-01	1.157536318142633E+03
3.678778778778760E-01	1.157318319969867E+03
3.689689689689671E-01	1.157102061406199E+03
3.700600600600581E-01	1.156887566339752E+03
3.711511511511492E-01	1.156674858328696E+03
3.722422422422403E-01	1.156463960569818E+03
3.733333333333314E-01	1.156254895814563E+03
3.744244244244224E-01	1.156047686421044E+03
3.755155155155135E-01	1.155842354306713E+03
3.766066066066046E-01	1.155638920904840E+03
3.776976976976956E-01	1.155437407162761E+03
3.787887887887867E-01	1.155237833524686E+03
3.798798798798778E-01	1.155040219915667E+03
3.809709709709688E-01	1.154844585667596E+03
3.820620620620599E-01	1.154650949631389E+03
3.831531531531510E-01	1.154459330016485E+03
3.842442442442420E-01	1.154269744454823E+03
3.853353353353331E-01	1.154082209991039E+03
3.864264264264242E-01	1.153896743048500E+03
3.875175175175152E-01	1.153713359413033E+03
3.886086086086063E-01	1.153532074226297E+03
3.896996996996974E-01	1.153352902010377E+03
3.907907907907884E-01	1.153175856641718E+03
3.918818818818795E-01	1.153000951312397E+03
3.929729729729706E-01	1.152828198562892E+03
3.940640640640616E-01	1.152657610300559E+03
3.951551551551527E-01	1.152489197733637E+03
3.962462462462438E-01	1.152322971436378E+03
3.973373373373348E-01	1.152158941314909E+03
3.984284284284259E-01	1.151997116578339E+03
3.995195195195170E-01	1.151837505846006E+03
4.006106106106080E-01	1.151680117042900E+03
4.017017017016991E-01	1.151524957463611E+03
4.027927927927902E-01	1.151372033739416E+03
4.038838838838812E-01	1.151221351901710E+03
4.049749749749723E-01	1.151072917347535E+03
4.060660660660634E-01	1.150926734831334E+03
4.071571571571544E-01	1.150782808557214E+03
4.082482482482455E-01	1.150641142086517E+03
4.093393393393366E-01	1.150501738409176E+03
4.104304304304277E-01	1.150364599959316E+03
4.115215215215187E-01	1.150229728570929E+03
4.126126126126098E-01	1.150097125577160E+03
4.137037037037009E-01	1.149966791736872E+03
4.147947947947919E-01	1.149838727297604E+03
4.158858858858830E-01	1.149712932006340E+03
4.169769769769741E-01	1.149589405105749E+03
4.180680680680651E-01	1.149468145335484E+03
4.191591591591562E-01	1.149349151000664E+03
4.202502502502473E-01	1.149232419936190E+03
4.213413413413383E-01	1.149117949525581E+03
4.224324324324294E-01	1.149005736728159E+03
4.235235235235205E-01	1.148895778091542E+03
4.246146146146115E-01	1.148788069764254E+03
4.257057057057026E-01	1.148682607508495E+03
4.267967967967937E-01	1.148579386713019E+03
4.278878878878847E-01	1.148478402406120E+03
4.289789789789758E-01	1.148379649268700E+03
4.300700700700669E-01	1.148283121647444E+03
4.311611611611579E-01	1.148188813568028E+03
4.322522522522490E-01	1.148096718748420E+03
4.333433433433401E-01	1.148006830612195E+03
4.344344344344311E-01	1.147919142301908E+03
4.355255255255222E-01	1.147833646692472E+03
4.366166166166133E-01	1.147750336404573E+03
4.377077077077043E-01	1.147669203777768E+03
4.387987987987954E-01	1.147590240970307E+03
4.398898898898865E-01	1.147513439851710E+03
4.409809809809775E-01	1.147438792137061E+03
4.420720720720686E-01	1.147366289304546E+03
4.431631631631597E-01	1.147295922646793E+03
4.442542542542507E-01	1.147227683265349E+03
4.453453453453418E-01	1.147161562093577E+03
4.464364364364329E-01	1.147097549904784E+03
4.475275275275239E-01	1.147035637306290E+03
4.486186186186150E-01	1.146975814765002E+03
4.497097097097061E-01	1.146918072610383E+03
4.508008008007972E-01	1.146862401031090E+03
4.518918918918882E-01	1.146808790100092E+03
4.529829829829793E-01	1.146757229785032E+03
4.540740740740704E-01	1.146707709929861E+03
4.551651651651614E-01	1.146660220290677E+03
4.562562562562525E-01	1.146614750521318E+03
4.573473473473436E-01	1.146571290197960E+03
4.584384384384346E-01	1.146529828813942E+03
4.595295295295257E-01	1.146490355778014E+03
4.606206206206168E-01	1.146452860451269E+03
4.617117117117078E-01	1.146417332119391E+03
4.628028028027989E-01	1.146383760015426E+03
4.638938938938900E-01	1.146352133324058E+03
4.649849849849810E-01	1.146322441170773E+03
4.660760760760721E-01	1.146294672664430E+03
4.671671671671632E-01	1.146268816856369E+03
4.682582582582542E-01	1.146244862774693E+03
4.693493493493453E-01	1.146222799423501E+03
4.704404404404364E-01	1.146202615780183E+03
4.715315315315274E-01	1.146184300803888E+03
4.726226226226185E-01	1.146167843439167E+03
4.737137137137096E-01	1.146153232619614E+03
4.748048048048006E-01	1.146140457271424E+03
4.758958958958917E-01	1.146129506316915E+03
4.769869869869828E-01	1.146120368675151E+03
4.780780780780738E-01	1.146113033267907E+03
4.791691691691649E-01	1.146107489029335E+03
4.802602602602560E-01	1.146103724894798E+03
4.813513513513470E-01	1.146101729808009E+03
4.824424424424381E-01	1.146101492733358E+03
4.835335335335292E-01	1.146103002649136E+03
4.846246246246202E-01	1.146106248548899E+03
4.857157157157113E-01	1.146111219449677E+03
4.868068068068024E-01	1.146117904395035E+03
4.878978978978935E-01	1.146126292437641E+03
4.889889889889845E-01	1.146136372679775E+03
4.900800800800756E-01	1.146148134237626E+03
4.911711711711667E-01	1.146161566263647E+03
4.922622622622577E-01	1.146176657935512E+03
4.933533533533488E-01	1.146193398475684E+03
4.944444444444399E-01	1.146211777131947E+03
4.955355355355309E-01	1.146231783197518E+03
4.966266266266220E-01	1.146253405994079E+03
4.977177177177131E-01	1.146276634893470E+03
4.988088088088041E-01	1.146301459305503E+03
4.998998998998952E-01	1.146327868667915E+03
5.009909909909863E-01	1.146355852485408E+03
5.020820820820774E-01	1.146385400288936E+03
5.031731731731685E-01	1.146416501664694E+03
5.042642642642595E-01	1.146449146233105E+03
