# barionic density, pressure
1.000000000000000E-05	9.853255278358120E-07
1.411391391391391E-03	-9.636647178012936E-07
2.812782782782782E-03	-1.526952843846630E-04
4.214174174174174E-03	-2.214854762542018E-03
5.615565565565564E-03	-3.699056803156964E-03
7.016956956956956E-03	-5.672912261161400E-03
8.418348348348348E-03	-1.121683308400634E-02
9.819739739739739E-03	-1.472416816034183E-02
1.122113113113113E-02	-1.875373720008611E-02
1.262252252252252E-02	-2.788215957957618E-02
1.402391391391391E-02	-3.345033007752818E-02
1.542530530530531E-02	-3.952671110295114E-02
1.682669669669670E-02	-4.610218246392606E-02
1.822808808808809E-02	-5.975573943828749E-02
1.962947947947948E-02	-6.779526260476132E-02
2.103087087087087E-02	-7.629784319914279E-02
2.243226226226226E-02	-8.524978752302559E-02
2.383365365365364E-02	-1.032274974490974E-01
2.523504504504503E-02	-1.135307825693985E-01
2.663643643643642E-02	-1.242379052665683E-01
2.803782782782781E-02	-1.353329448114664E-01
2.943921921921920E-02	-1.573811652574477E-01
3.084061061061059E-02	-1.696965573417515E-01
3.224200200200199E-02	-1.823493663809472E-01
3.364339339339338E-02	-1.953224322119809E-01
3.504478478478477E-02	-2.085983743728548E-01
3.644617617617617E-02	-2.221596179759899E-01
3.784756756756756E-02	-2.359884161489845E-01
3.924895895895895E-02	-2.640998017905076E-01
4.065035035035035E-02	-2.788988589513792E-01
4.205174174174174E-02	-2.939106847525750E-01
4.345313313313313E-02	-3.091170130821865E-01
4.485452452452453E-02	-3.244994824224250E-01
4.625591591591592E-02	-3.400396463396760E-01
4.765730730730731E-02	-3.557189828519540E-01
4.905869869869871E-02	-3.715189028189911E-01
5.046009009009010E-02	-3.874207574708635E-01
5.186148148148149E-02	-4.034058451941291E-01
5.326287287287289E-02	-4.194554176489191E-01
5.466426426426428E-02	-4.549331236513581E-01
5.606565565565567E-02	-4.715363427450256E-01
5.746704704704707E-02	-4.881468220973488E-01
5.886843843843846E-02	-5.047456711406539E-01
6.026982982982985E-02	-5.213139754837925E-01
6.167122122122125E-02	-5.378328003814659E-01
6.307261261261264E-02	-5.542831938693098E-01
6.447400400400403E-02	-5.706461896576229E-01
6.587539539539543E-02	-5.869028097654336E-01
6.727678678678682E-02	-6.030340669462930E-01
6.867817817817821E-02	-6.190209669050546E-01
7.007956956956961E-02	-6.348445103334370E-01
7.148096096096100E-02	-6.504856947852886E-01
7.288235235235239E-02	-6.659255163975786E-01
7.428374374374379E-02	-6.550980414767764E-01
7.568513513513518E-02	-6.696081435454744E-01
7.708652652652657E-02	-6.838607215096317E-01
7.848791791791797E-02	-6.978367877813980E-01
7.988930930930936E-02	-7.115173601878269E-01
8.129070070070075E-02	-7.248834629961038E-01
8.269209209209215E-02	-7.379161278715856E-01
8.409348348348354E-02	-7.505963947412511E-01
8.549487487487493E-02	-7.629053126003669E-01
8.689626626626633E-02	-7.748239402322952E-01
8.829765765765772E-02	-7.863333468823157E-01
8.969904904904911E-02	-7.974146128592565E-01
9.110044044044051E-02	-8.080488300928437E-01
9.250183183183190E-02	-7.861384362001331E-01
9.390322322322329E-02	-7.953634696397103E-01
9.530461461461469E-02	-8.040857514588424E-01
9.670600600600608E-02	-8.122864333297457E-01
9.810739739739748E-02	-8.199466806963187E-01
9.950878878878887E-02	-8.270476730650671E-01
1.009101801801803E-01	-8.335706042623769E-01
1.023115715715717E-01	-8.394966826481323E-01
1.037129629629630E-01	-8.448071313074479E-01
1.051143543543544E-01	-8.133236664849619E-01
1.065157457457458E-01	-8.168970094562837E-01
1.079171371371372E-01	-8.197995099351374E-01
1.093185285285286E-01	-8.220124609070467E-01
1.107199199199200E-01	-8.235171707269728E-01
1.121213113113114E-01	-8.242949631538750E-01
1.135227027027028E-01	-7.854957394406483E-01
1.149240940940942E-01	-7.843204554542353E-01
1.163254854854856E-01	-7.823634044879100E-01
1.177268768768770E-01	-7.796059821756671E-01
1.191282682682684E-01	-7.760295995459501E-01
1.205296596596598E-01	-7.716156829477541E-01
1.219310510510512E-01	-7.248808790379826E-01
1.233324424424426E-01	-7.182996138297995E-01
1.247338338338339E-01	-7.108263335737774E-01
1.261352252252253E-01	-7.024425357957398E-01
1.275366166166167E-01	-6.931297328478649E-01
1.289380080080081E-01	-6.828694517517420E-01
1.303393993993995E-01	-6.275857742048174E-01
1.317407907907909E-01	-6.149455851096945E-01
1.331421821821823E-01	-6.013038003294469E-01
1.345435735735737E-01	-5.866420153770378E-01
1.359449649649651E-01	-5.709418395829289E-01
1.373463563563565E-01	-5.541848958665696E-01
1.387477477477479E-01	-4.897456531904822E-01
1.401491391391393E-01	-4.703979339453781E-01
1.415505305305307E-01	-4.499396801198827E-01
1.429519219219220E-01	-4.283525789375062E-01
1.443533133133134E-01	-4.056183300848488E-01
1.457547047047048E-01	-3.330227864480548E-01
1.471560960960962E-01	-3.075237330223786E-01
1.485574874874876E-01	-2.808240498292207E-01
1.499588788788790E-01	-2.529054965528985E-01
1.513602702702704E-01	-2.237498440264289E-01
1.527616616616618E-01	-1.425871934849852E-01
1.541630530530532E-01	-1.104938511968498E-01
1.555644444444446E-01	-7.711019719118894E-02
1.569658358358360E-01	-4.241805735421167E-02
1.583672272272274E-01	-6.399267262793273E-03
1.597686186186188E-01	3.096432814982109E-02
1.611700100100102E-01	1.228657113409781E-01
1.625714014014016E-01	1.633735857448073E-01
1.639727927927929E-01	2.052791850798599E-01
1.653741841841843E-01	2.486006160593206E-01
1.667755755755757E-01	2.933559776354855E-01
1.681769669669671E-01	3.395633613624796E-01
1.695783583583585E-01	4.427864030594719E-01
1.709797497497499E-01	4.923432190115591E-01
1.723811411411413E-01	5.434047119949241E-01
1.737825325325327E-01	5.959889324622054E-01
1.751839239239241E-01	6.501139251662948E-01
1.765853153153155E-01	7.057977295384603E-01
1.779867067067069E-01	8.209192680434398E-01
1.793880980980983E-01	8.801563213004897E-01
1.807894894894897E-01	9.410046065299866E-01
1.821908808808811E-01	1.003482129709653E+00
1.835922722722725E-01	1.067606893265634E+00
1.849936636636638E-01	1.133396896459828E+00
1.863950550550552E-01	1.200870135780178E+00
1.877964464464466E-01	1.330533726332760E+00
1.891978378378380E-01	1.401797021021480E+00
1.905992292292294E-01	1.474795746277778E+00
1.920006206206208E-01	1.549547874451150E+00
1.934020120120122E-01	1.626071376933339E+00
1.948034034034036E-01	1.704384224551859E+00
1.962047947947950E-01	1.784504387961533E+00
1.976061861861864E-01	1.882208476204880E+00
1.990075775775778E-01	1.997780989268620E+00
2.004089689689692E-01	2.083697156454946E+00
2.018103603603606E-01	2.171491088391690E+00
2.032117517517520E-01	2.261180747205628E+00
2.046131431431434E-01	2.352784097099118E+00
2.060145345345347E-01	2.446319104745555E+00
2.074159259259261E-01	2.541803739677903E+00
2.088173173173175E-01	2.672171312271871E+00
2.102187087087089E-01	2.771779742082344E+00
2.116201001001003E-01	2.873390704788790E+00
2.130214914914917E-01	2.977022175650006E+00
2.144228828828831E-01	3.082692134635920E+00
2.158242742742745E-01	3.190418566802805E+00
2.172256656656659E-01	3.300219462674477E+00
2.186270570570573E-01	3.412112818613764E+00
2.200284484484487E-01	3.526116637193809E+00
2.214298398398401E-01	3.642248927568062E+00
2.228312312312315E-01	3.760527705832374E+00
2.242326226226229E-01	3.880970995388850E+00
2.256340140140143E-01	4.003596827302317E+00
2.270354054054056E-01	4.128423240653433E+00
2.284367967967970E-01	4.255468282891115E+00
2.298381881881884E-01	4.384750010174855E+00
2.312395795795798E-01	4.516286487716343E+00
2.326409709709712E-01	4.614425908049157E+00
2.340423623623626E-01	4.750374265383414E+00
2.354437537537540E-01	4.888632823673277E+00
2.368451451451454E-01	5.029219698539976E+00
2.382465365365368E-01	5.172153016362415E+00
2.396479279279282E-01	5.281033579438315E+00
2.410493193193196E-01	5.428568503108579E+00
2.424507107107110E-01	5.578505569996992E+00
2.438521021021024E-01	5.730862963805407E+00
2.452534934934938E-01	5.848666250522854E+00
2.466548848848852E-01	6.005778334685942E+00
2.480562762762765E-01	6.165366671873073E+00
2.494576676676679E-01	6.290039225338262E+00
2.508590590590593E-01	6.454498251794462E+00
2.522604504504507E-01	6.583807810313829E+00
2.536618418418421E-01	6.753216049472542E+00
2.550632332332335E-01	6.887246882603733E+00
2.564646246246249E-01	7.061683118816404E+00
2.578660160160163E-01	7.200519867579828E+00
2.592674074074077E-01	7.380063152089974E+00
2.606687987987991E-01	7.523790836251521E+00
2.620701901901905E-01	7.708520492821094E+00
2.634715815815818E-01	7.857224517787643E+00
2.648729729729732E-01	8.008388135901328E+00
2.662743643643646E-01	8.200986311254269E+00
2.676757557557560E-01	8.357256693737725E+00
2.690771471471474E-01	8.516054513609618E+00
2.704785385385388E-01	8.677403063162558E+00
2.718799299299302E-01	8.880741870569750E+00
2.732813213213216E-01	9.047373723319481E+00
2.746827127127130E-01	9.216624929380714E+00
2.760841041041044E-01	9.388519065664525E+00
2.774854954954958E-01	9.563079785445382E+00
2.788868868868872E-01	9.740330818777352E+00
2.802882782782786E-01	9.920295972889107E+00
2.816896696696700E-01	1.010299913255801E+01
2.830910610610614E-01	1.028846426045766E+01
2.844924524524527E-01	1.047671539748399E+01
2.858938438438441E-01	1.066777666305654E+01
2.872952352352355E-01	1.082112418185756E+01
2.886966266266269E-01	1.101778637408273E+01
2.900980180180183E-01	1.121733341845453E+01
2.914994094094097E-01	1.141978976869251E+01
2.929008008008011E-01	1.158427780393083E+01
2.943021921921925E-01	1.179254221310464E+01
2.957035835835839E-01	1.196272579049059E+01
2.971049749749753E-01	1.217690502681853E+01
2.985063663663667E-01	1.235289964736518E+01
2.999077577577581E-01	1.257310134621252E+01
3.013091491491495E-01	1.275502354336953E+01
3.027105405405409E-01	1.298135621001614E+01
3.041119319319323E-01	1.316932355335570E+01
3.055133233233236E-01	1.336032584374004E+01
3.069147147147150E-01	1.355439517836083E+01
3.083161061061064E-01	1.379325569800017E+01
3.097174974974978E-01	1.399361307438357E+01
3.111188888888892E-01	1.419713235713471E+01
3.125202802802806E-01	1.440384627653219E+01
3.139216716716720E-01	1.461378772705814E+01
3.153230630630634E-01	1.482698976728346E+01
3.167244544544548E-01	1.500148841146574E+01
3.181258458458462E-01	1.522126930686761E+01
3.195272372372376E-01	1.544441350990400E+01
3.209286286286290E-01	1.567095475741337E+01
3.223300200200204E-01	1.585878152377649E+01
3.237314114114118E-01	1.609218708756828E+01
3.251328028028032E-01	1.628689373318707E+01
3.265341941941945E-01	1.652731133241957E+01
3.279355855855859E-01	1.672905762575675E+01
3.293369769769773E-01	1.693437678983179E+01
3.307383683683687E-01	1.718558408443977E+01
3.321397597597601E-01	1.739818892897802E+01
3.335411511511515E-01	1.761449524791720E+01
3.349425425425429E-01	1.783454745241613E+01
3.363439339339343E-01	1.805839021857793E+01
3.377453253253257E-01	1.828606848598815E+01
3.391467167167171E-01	1.851762745610557E+01
3.405481081081085E-01	1.871084635717602E+01
3.419494994994999E-01	1.895031712937055E+01
3.433508908908913E-01	1.919380910111784E+01
3.447522822822827E-01	1.939916104790473E+01
3.461536736736741E-01	1.960868266716926E+01
3.475550650650654E-01	1.986457193686681E+01
3.489564564564568E-01	2.008256681277373E+01
3.503578478478482E-01	2.030490145433384E+01
3.517592392392396E-01	2.053163457136355E+01
3.531606306306310E-01	2.076282524706278E+01
3.545620220220224E-01	2.099853293374861E+01
3.559634134134138E-01	2.123881744830010E+01
3.573648048048052E-01	2.144195628532367E+01
3.587661961961966E-01	2.169164253798459E+01
3.601675875875880E-01	2.190445676998206E+01
3.615689789789794E-01	2.216380510880811E+01
3.629703703703708E-01	2.238657415550711E+01
3.643717617617622E-01	2.261447381475693E+01
3.657731531531536E-01	2.284757990159511E+01
3.671745445445450E-01	2.308596870610995E+01
3.685759359359363E-01	2.328866606344593E+01
3.699773273273277E-01	2.353796507873750E+01
3.713787187187191E-01	2.375197683994634E+01
3.727801101101105E-01	2.401251663799871E+01
3.741815015015019E-01	2.423819605918516E+01
3.755828928928933E-01	2.446991642493788E+01
3.769842842842847E-01	2.470777312803580E+01
3.783856756756761E-01	2.495186211823363E+01
3.797870670670675E-01	2.516237157055195E+01
3.811884584584589E-01	2.541938460608895E+01
3.825898498498503E-01	2.564337664287552E+01
3.839912412412417E-01	2.587437228136207E+01
3.853926326326331E-01	2.611248845681837E+01
3.867940240240245E-01	2.631891179586052E+01
3.881954154154159E-01	2.657183718416496E+01
3.895968068068072E-01	2.679376449489268E+01
3.909981981981986E-01	2.702376468762054E+01
3.923995895895900E-01	2.726197847998151E+01
3.938009809809814E-01	2.747083656169292E+01
3.952023723723728E-01	2.771680965723419E+01
3.966037637637642E-01	2.794370625743016E+01
3.980051551551556E-01	2.817997433755477E+01
3.994065465465470E-01	2.840751470531632E+01
4.008079379379384E-01	2.864508073931302E+01
4.022093293293298E-01	2.885699059243711E+01
4.036107207207212E-01	2.909773870550322E+01
4.050121121121126E-01	2.931428673770881E+01
4.064135035035040E-01	2.954272134741075E+01
4.078148948948954E-01	2.976610085674957E+01
4.092162862862868E-01	3.000222959488070E+01
4.106176776776782E-01	3.021787819951049E+01
4.120190690690695E-01	3.044765630464678E+01
4.134204604604609E-01	3.067557561726022E+01
4.148218518518523E-01	3.088664626335446E+01
4.162232432432437E-01	3.111420273506735E+01
4.176246346346351E-01	3.132764898400364E+01
4.190260260260265E-01	3.155935910295437E+01
4.204274174174179E-01	3.177996291555758E+01
4.218288088088093E-01	3.199170170361992E+01
4.232302002002007E-01	3.221116426926307E+01
4.246315915915921E-01	3.242599242243790E+01
4.260329829829835E-01	3.263884950041097E+01
4.274343743743749E-01	3.285256887460406E+01
4.288357657657663E-01	3.307015892696160E+01
4.302371571571577E-01	3.327045750886447E+01
4.316385485485491E-01	3.348309561039912E+01
4.330399399399404E-01	3.370060554771402E+01
4.344413313313318E-01	3.390728430461166E+01
4.358427227227232E-01	3.411260476633686E+01
4.372441141141146E-01	3.431759623220853E+01
4.386455055055060E-01	3.451851504460399E+01
4.400468968968974E-01	3.471940082297726E+01
4.414482882882888E-01	3.492197500555028E+01
4.428496796796802E-01	3.512064240533084E+01
4.442510710710716E-01	3.531868894593504E+01
4.456524624624630E-01	3.551354247236856E+01
4.470538538538544E-01	3.653437407451617E+01
4.484552452452458E-01	3.764854494052753E+01
4.498566366366372E-01	3.876584147918277E+01
4.512580280280286E-01	3.988626331550881E+01
4.526594194194200E-01	4.100981007647499E+01
4.540608108108113E-01	4.213648139097597E+01
4.554622022022027E-01	4.326627688981694E+01
4.568635935935941E-01	4.439919620569697E+01
4.582649849849855E-01	4.553523897319349E+01
4.596663763763769E-01	4.667440482874804E+01
4.610677677677683E-01	4.781669341065020E+01
4.624691591591597E-01	4.896210435902253E+01
4.638705505505511E-01	5.011063731580646E+01
4.652719419419425E-01	5.126229192474682E+01
4.666733333333339E-01	5.241706783137801E+01
4.680747247247253E-01	5.357496468300928E+01
4.694761161161167E-01	5.473598212871070E+01
4.708775075075081E-01	5.590011981929922E+01
4.722788988988995E-01	5.706737740732422E+01
4.736802902902909E-01	5.823775454705492E+01
4.750816816816822E-01	5.941125089446552E+01
4.764830730730736E-01	6.058786610722302E+01
4.778844644644650E-01	6.176759984467276E+01
4.792858558558564E-01	6.295045176782588E+01
4.806872472472478E-01	6.413642153934688E+01
4.820886386386392E-01	6.532550882353968E+01
4.834900300300306E-01	6.651771328633515E+01
4.848914214214220E-01	6.771303459527940E+01
4.862928128128134E-01	6.891147241952024E+01
4.876942042042048E-01	7.011302642979570E+01
4.890955955955962E-01	7.131769629842120E+01
4.904969869869876E-01	7.252548169927775E+01
4.918983783783790E-01	7.373638230780011E+01
4.932997697697704E-01	7.495039780096488E+01
4.947011611611618E-01	7.616752785727874E+01
4.961025525525531E-01	7.738777215676714E+01
4.975039439439445E-01	7.861113038096266E+01
4.989053353353359E-01	7.983760221289344E+01
5.003067267267273E-01	8.106718733707254E+01
5.017081181181187E-01	8.229988543948656E+01
5.031095095095101E-01	8.353569620758424E+01
5.045109009009014E-01	8.477461933026689E+01
5.059122922922928E-01	8.601665449787555E+01
5.073136836836842E-01	8.726180140218264E+01
5.087150750750756E-01	8.851005973637928E+01
5.101164664664670E-01	8.976142919506657E+01
5.115178578578584E-01	9.101590947424449E+01
5.129192492492498E-01	9.227350027130177E+01
5.143206406406412E-01	9.353420128500551E+01
5.157220320320326E-01	9.479801221549167E+01
5.171234234234240E-01	9.606493276425476E+01
5.185248148148154E-01	9.733496263413792E+01
5.199262062062068E-01	9.860810152932402E+01
5.213275975975982E-01	9.988434915532486E+01
5.227289889889896E-01	1.011637052189723E+02
5.241303803803810E-01	1.024461694284090E+02
5.255317717717723E-01	1.037317414930785E+02
5.269331631631637E-01	1.050204211237166E+02
5.283345545545551E-01	1.063122080323416E+02
5.297359459459465E-01	1.076071019322450E+02
5.311373373373379E-01	1.089051025379839E+02
5.325387287287293E-01	1.102062095653706E+02
5.339401201201207E-01	1.115104227314648E+02
5.353415115115121E-01	1.128177417545639E+02
5.367429029029035E-01	1.141281663541954E+02
5.381442942942949E-01	1.154416962511070E+02
5.395456856856863E-01	1.167583311672601E+02
5.409470770770777E-01	1.180780708258193E+02
5.423484684684691E-01	1.194009149511454E+02
5.437498598598605E-01	1.207268632687869E+02
5.451512512512519E-01	1.220559155054713E+02
5.465526426426432E-01	1.233880713890977E+02
5.479540340340346E-01	1.247233306487285E+02
5.493554254254260E-01	1.260616930145816E+02
5.507568168168174E-01	1.274031582180218E+02
5.521582082082088E-01	1.287477259915544E+02
5.535595995996002E-01	1.300953960688158E+02
5.549609909909916E-01	1.314461681845681E+02
5.563623823823830E-01	1.328000420746888E+02
5.577637737737744E-01	1.341570174761652E+02
5.591651651651658E-01	1.355170941270867E+02
5.605665565565572E-01	1.368802717666367E+02
5.619679479479486E-01	1.382465501350865E+02
5.633693393393400E-01	1.396159289737864E+02
5.647707307307314E-01	1.409884080251602E+02
5.661721221221228E-01	1.423639870326967E+02
5.675735135135141E-01	1.437426657409443E+02
5.689749049049055E-01	1.451244438955022E+02
5.703762962962969E-01	1.465093212430145E+02
5.717776876876883E-01	1.478972975311634E+02
5.731790790790797E-01	1.492883725086625E+02
5.745804704704711E-01	1.506825459252492E+02
5.759818618618625E-01	1.520798175316787E+02
5.773832532532539E-01	1.534801870797180E+02
5.787846446446453E-01	1.548836543221377E+02
5.801860360360367E-01	1.562902190127071E+02
5.815874274274281E-01	1.576998809061872E+02
5.829888188188195E-01	1.591126397583239E+02
5.843902102102109E-01	1.605284953258423E+02
5.857916016016023E-01	1.619474473664401E+02
5.871929929929937E-01	1.633694956387816E+02
5.885943843843850E-01	1.647946399024912E+02
5.899957757757764E-01	1.662228799181481E+02
5.913971671671678E-01	1.676542154472789E+02
5.927985585585592E-01	1.690886462523530E+02
5.941999499499506E-01	1.705261720967757E+02
5.956013413413420E-01	1.719667927448830E+02
5.970027327327334E-01	1.734105079619352E+02
5.984041241241248E-01	1.748573175141113E+02
5.998055155155162E-01	1.763072211685031E+02
6.012069069069076E-01	1.777602186931106E+02
6.026082982982990E-01	1.792163098568343E+02
6.040096896896904E-01	1.806754944294712E+02
6.054110810810818E-01	1.821377721817092E+02
6.068124724724732E-01	1.836031428851212E+02
6.082138638638646E-01	1.850716063121589E+02
6.096152552552560E-01	1.865431622361490E+02
6.110166466466473E-01	1.880178104312862E+02
6.124180380380387E-01	1.894955506726297E+02
6.138194294294301E-01	1.909763827360960E+02
6.152208208208215E-01	1.924603063984553E+02
6.166222122122129E-01	1.939473214373248E+02
6.180236036036043E-01	1.954374276311654E+02
6.194249949949957E-01	1.969306247592746E+02
6.208263863863871E-01	1.984269126017826E+02
6.222277777777785E-01	1.999262909396481E+02
6.236291691691699E-01	2.014287595546508E+02
6.250305605605613E-01	2.029343182293892E+02
6.264319519519527E-01	2.044429667472735E+02
6.278333433433441E-01	2.059547048925230E+02
6.292347347347355E-01	2.074695324501587E+02
6.306361261261269E-01	2.089874492060009E+02
