# barionic dentisy, proton chemical potential, neutron chemical potential1.034034034034034E-02	9.364131447856688E+02	9.364131447856688E+02
1.068068068068068E-02	9.362491547516186E+02	9.362491547516186E+02
1.102102102102102E-02	9.360845955561176E+02	9.360845955561176E+02
1.136136136136136E-02	9.359195213166075E+02	9.359195213166075E+02
1.170170170170170E-02	9.357539823126353E+02	9.357539823126353E+02
1.204204204204204E-02	9.355880253580921E+02	9.355880253580921E+02
1.238238238238239E-02	9.354216941279331E+02	9.354216941279331E+02
1.272272272272273E-02	9.352550294460424E+02	9.352550294460424E+02
1.306306306306307E-02	9.350880695397660E+02	9.350880695397660E+02
1.340340340340341E-02	9.349208502657418E+02	9.349208502657418E+02
1.374374374374375E-02	9.347534053109033E+02	9.347534053109033E+02
1.408408408408409E-02	9.345857663719277E+02	9.345857663719277E+02
1.442442442442443E-02	9.344179633159076E+02	9.344179633159076E+02
1.476476476476477E-02	9.342500243246017E+02	9.342500243246017E+02
1.510510510510511E-02	9.344443345646141E+02	9.344443345646141E+02
1.544544544544545E-02	9.342761338044048E+02	9.342761338044048E+02
1.578578578578579E-02	9.341078729399235E+02	9.341078729399235E+02
1.612612612612613E-02	9.339395745815368E+02	9.339395745815368E+02
1.646646646646647E-02	9.337712601910804E+02	9.337712601910804E+02
1.680680680680681E-02	9.336029501612966E+02	9.336029501612966E+02
1.714714714714715E-02	9.334346638882960E+02	9.334346638882960E+02
1.748748748748749E-02	9.332664198377842E+02	9.332664198377842E+02
1.782782782782784E-02	9.330982356057001E+02	9.330982356057001E+02
1.816816816816818E-02	9.329301279738286E+02	9.329301279738286E+02
1.850850850850852E-02	9.327621129608992E+02	9.327621129608992E+02
1.884884884884886E-02	9.325942058696040E+02	9.325942058696040E+02
1.918918918918920E-02	9.327879726171573E+02	9.327879726171573E+02
1.952952952952954E-02	9.326202577722974E+02	9.326202577722974E+02
1.986986986986988E-02	9.324526929546838E+02	9.324526929546838E+02
2.021021021021022E-02	9.322852909991252E+02	9.322852909991252E+02
2.055055055055056E-02	9.321180642108551E+02	9.321180642108551E+02
2.089089089089090E-02	9.319510243949637E+02	9.319510243949637E+02
2.123123123123124E-02	9.317841828837476E+02	9.317841828837476E+02
2.157157157157158E-02	9.316175505621559E+02	9.316175505621559E+02
2.191191191191192E-02	9.314511378914920E+02	9.314511378914920E+02
2.225225225225226E-02	9.312849549315154E+02	9.312849549315154E+02
2.259259259259261E-02	9.311190113610793E+02	9.311190113610793E+02
2.293293293293295E-02	9.313141404181840E+02	9.313141404181840E+02
2.327327327327329E-02	9.311486370262345E+02	9.311486370262345E+02
2.361361361361363E-02	9.309833999900504E+02	9.309833999900504E+02
2.395395395395397E-02	9.308184376421780E+02	9.308184376421780E+02
2.429429429429431E-02	9.306537580192793E+02	9.306537580192793E+02
2.463463463463465E-02	9.304893688760791E+02	9.304893688760791E+02
2.497497497497499E-02	9.303252776984773E+02	9.303252776984773E+02
2.531531531531533E-02	9.301614917158797E+02	9.301614917158797E+02
2.565565565565567E-02	9.299980179128128E+02	9.299980179128128E+02
2.599599599599601E-02	9.298348630398647E+02	9.298348630398647E+02
2.633633633633635E-02	9.296720336240058E+02	9.296720336240058E+02
2.667667667667669E-02	9.298696378886472E+02	9.298696378886472E+02
2.701701701701703E-02	9.297074121076818E+02	9.297074121076818E+02
2.735735735735738E-02	9.295455301124589E+02	9.295455301124589E+02
2.769769769769772E-02	9.293839976250706E+02	9.293839976250706E+02
2.803803803803806E-02	9.292228201877014E+02	9.292228201877014E+02
2.837837837837840E-02	9.290620031699972E+02	9.290620031699972E+02
2.871871871871874E-02	9.289015517760519E+02	9.289015517760519E+02
2.905905905905908E-02	9.287414710510342E+02	9.287414710510342E+02
2.939939939939942E-02	9.285817658874739E+02	9.285817658874739E+02
2.973973973973976E-02	9.284224410312344E+02	9.284224410312344E+02
3.008008008008010E-02	9.286229482098981E+02	9.286229482098981E+02
3.042042042042044E-02	9.284643315343592E+02	9.284643315343592E+02
3.076076076076078E-02	9.283061085508707E+02	9.283061085508707E+02
3.110110110110112E-02	9.281482834706388E+02	9.281482834706388E+02
3.144144144144146E-02	9.279908603839798E+02	9.279908603839798E+02
3.178178178178180E-02	9.278338432647539E+02	9.278338432647539E+02
3.212212212212214E-02	9.276772359745876E+02	9.276772359745876E+02
3.246246246246248E-02	9.275210422669023E+02	9.275210422669023E+02
3.280280280280282E-02	9.273652657907602E+02	9.273652657907602E+02
3.314314314314316E-02	9.275687674605853E+02	9.275687674605853E+02
3.348348348348350E-02	9.274137696227485E+02	9.274137696227485E+02
3.382382382382385E-02	9.272591993286510E+02	9.272591993286510E+02
3.416416416416419E-02	9.271050598433634E+02	9.271050598433634E+02
3.450450450450453E-02	9.269513543444292E+02	9.269513543444292E+02
3.484484484484487E-02	9.267980859247964E+02	9.267980859247964E+02
3.518518518518521E-02	9.266452575956246E+02	9.266452575956246E+02
3.552552552552555E-02	9.264928722889762E+02	9.264928722889762E+02
3.586586586586589E-02	9.263409328603916E+02	9.263409328603916E+02
3.620620620620623E-02	9.265477073590533E+02	9.265477073590533E+02
3.654654654654657E-02	9.263966011908573E+02	9.263966011908573E+02
3.688688688688691E-02	9.262459489739149E+02	9.262459489739149E+02
3.722722722722725E-02	9.260957532799880E+02	9.260957532799880E+02
3.756756756756759E-02	9.259460166157302E+02	9.259460166157302E+02
3.790790790790793E-02	9.257967414246991E+02	9.257967414246991E+02
3.824824824824827E-02	9.256479300892854E+02	9.256479300892854E+02
3.858858858858862E-02	9.254995849325740E+02	9.254995849325740E+02
3.892892892892896E-02	9.257094451335681E+02	9.257094451335681E+02
3.926926926926930E-02	9.255619718654498E+02	9.255619718654498E+02
3.960960960960964E-02	9.254149713379273E+02	9.254149713379273E+02
3.994994994994998E-02	9.252684456528092E+02	9.252684456528092E+02
4.029029029029032E-02	9.251223968608933E+02	9.251223968608933E+02
4.063063063063066E-02	9.249768269634438E+02	9.249768269634438E+02
4.097097097097100E-02	9.248317379136115E+02	9.248317379136115E+02
4.131131131131134E-02	9.246871316178035E+02	9.246871316178035E+02
4.165165165165168E-02	9.245430099370024E+02	9.245430099370024E+02
4.199199199199202E-02	9.247565122179385E+02	9.247565122179385E+02
4.233233233233236E-02	9.246132973668648E+02	9.246132973668648E+02
4.267267267267270E-02	9.244705723742643E+02	9.244705723742643E+02
4.301301301301304E-02	9.243283389306217E+02	9.243283389306217E+02
4.335335335335339E-02	9.241865986869469E+02	9.241865986869469E+02
4.369369369369373E-02	9.240453532558411E+02	9.240453532558411E+02
4.403403403403407E-02	9.239046042125256E+02	9.239046042125256E+02
4.437437437437441E-02	9.237643530958397E+02	9.237643530958397E+02
4.471471471471475E-02	9.239812028073059E+02	9.239812028073059E+02
4.505505505505509E-02	9.238418836138550E+02	9.238418836138550E+02
4.539539539539543E-02	9.237030666670181E+02	9.237030666670181E+02
4.573573573573577E-02	9.235647533684104E+02	9.235647533684104E+02
4.607607607607611E-02	9.234269450877754E+02	9.234269450877754E+02
4.641641641641645E-02	9.232896431638023E+02	9.232896431638023E+02
4.675675675675679E-02	9.231528489049106E+02	9.231528489049106E+02
4.709709709709713E-02	9.230165635900164E+02	9.230165635900164E+02
4.743743743743747E-02	9.232368492611001E+02	9.232368492611001E+02
4.777777777777781E-02	9.231015164909400E+02	9.231015164909400E+02
4.811811811811816E-02	9.229666962365848E+02	9.229666962365848E+02
4.845845845845850E-02	9.228323896651812E+02	9.228323896651812E+02
4.879879879879884E-02	9.226985979178492E+02	9.226985979178492E+02
4.913913913913918E-02	9.225653221103184E+02	9.225653221103184E+02
4.947947947947952E-02	9.224325633335385E+02	9.224325633335385E+02
4.981981981981986E-02	9.226559075796987E+02	9.226559075796987E+02
5.016016016016020E-02	9.225241163602817E+02	9.225241163602817E+02
5.050050050050054E-02	9.223928452004070E+02	9.223928452004070E+02
5.084084084084088E-02	9.222620950968146E+02	9.222620950968146E+02
5.118118118118122E-02	9.221318670242716E+02	9.221318670242716E+02
5.152152152152156E-02	9.220021619360840E+02	9.220021619360840E+02
5.186186186186190E-02	9.218729807645914E+02	9.218729807645914E+02
5.220220220220224E-02	9.217443244216536E+02	9.217443244216536E+02
5.254254254254258E-02	9.219712285721544E+02	9.219712285721544E+02
5.288288288288293E-02	9.218435540994540E+02	9.218435540994540E+02
5.322322322322327E-02	9.217164069649061E+02	9.217164069649061E+02
5.356356356356361E-02	9.215897880021951E+02	9.215897880021951E+02
5.390390390390395E-02	9.214636980267443E+02	9.214636980267443E+02
5.424424424424429E-02	9.213381378361249E+02	9.213381378361249E+02
5.458458458458463E-02	9.212131082104490E+02	9.212131082104490E+02
5.492492492492497E-02	9.214431599623006E+02	9.214431599623006E+02
5.526526526526531E-02	9.213191225981219E+02	9.213191225981219E+02
5.560560560560565E-02	9.211956179252564E+02	9.211956179252564E+02
5.594594594594599E-02	9.210726466569670E+02	9.210726466569670E+02
5.628628628628633E-02	9.209502094908887E+02	9.209502094908887E+02
5.662662662662667E-02	9.208283071093630E+02	9.208283071093630E+02
5.696696696696701E-02	9.207069401797654E+02	9.207069401797654E+02
5.730730730730735E-02	9.209401701831011E+02	9.209401701831011E+02
5.764764764764770E-02	9.208198042273091E+02	9.208198042273091E+02
5.798798798798804E-02	9.206999755208510E+02	9.206999755208510E+02
5.832832832832838E-02	9.205806846736137E+02	9.205806846736137E+02
5.866866866866872E-02	9.204619322820377E+02	9.204619322820377E+02
5.900900900900906E-02	9.203437189293943E+02	9.203437189293943E+02
5.934934934934940E-02	9.202260451860607E+02	9.202260451860607E+02
5.968968968968974E-02	9.204624784866858E+02	9.204624784866858E+02
6.003003003003008E-02	9.203458129824336E+02	9.203458129824336E+02
6.037037037037042E-02	9.202296886009639E+02	9.202296886009639E+02
6.071071071071076E-02	9.201141058629652E+02	9.201141058629652E+02
6.105105105105110E-02	9.199990652774995E+02	9.199990652774995E+02
6.139139139139144E-02	9.198845673422393E+02	9.198845673422393E+02
6.173173173173178E-02	9.197706125436955E+02	9.197706125436955E+02
6.207207207207213E-02	9.200102693319228E+02	9.200102693319228E+02
6.241241241241247E-02	9.198973287839056E+02	9.198973287839056E+02
6.275275275275280E-02	9.197849326398045E+02	9.197849326398045E+02
6.309309309309313E-02	9.196730813429884E+02	9.196730813429884E+02
6.343343343343347E-02	9.195617753267339E+02	9.195617753267339E+02
6.377377377377380E-02	9.194510150144245E+02	9.194510150144245E+02
6.411411411411413E-02	9.193408008197457E+02	9.193408008197457E+02
6.445445445445447E-02	9.195836970565723E+02	9.195836970565723E+02
6.479479479479480E-02	9.194745020321793E+02	9.194745020321793E+02
6.513513513513514E-02	9.193658541780616E+02	9.193658541780616E+02
6.547547547547547E-02	9.192577538702942E+02	9.192577538702942E+02
6.581581581581580E-02	9.191502014761605E+02	9.191502014761605E+02
6.615615615615614E-02	9.190431973543206E+02	9.190431973543206E+02
6.649649649649647E-02	9.189367418549772E+02	9.189367418549772E+02
6.683683683683680E-02	9.191828897994209E+02	9.191828897994209E+02
6.717717717717714E-02	9.190774574354488E+02	9.190774574354488E+02
6.751751751751747E-02	9.189725745589545E+02	9.189725745589545E+02
6.785785785785781E-02	9.188682414872375E+02	9.188682414872375E+02
6.819819819819814E-02	9.187644585299123E+02	9.187644585299123E+02
6.853853853853847E-02	9.186612259890545E+02	9.186612259890545E+02
6.887887887887881E-02	9.185585441593427E+02	9.185585441593427E+02
6.921921921921914E-02	9.188079528154453E+02	9.188079528154453E+02
6.955955955955948E-02	9.187062972480323E+02	9.187062972480323E+02
6.989989989989981E-02	9.186051930920249E+02	9.186051930920249E+02
7.024024024024014E-02	9.185046406132245E+02	9.185046406132245E+02
7.058058058058048E-02	9.184046400706997E+02	9.184046400706997E+02
7.092092092092081E-02	9.183051917169095E+02	9.183051917169095E+02
7.126126126126114E-02	9.185573913275589E+02	9.185573913275589E+02
7.160160160160148E-02	9.184589712958756E+02	9.184589712958756E+02
7.194194194194181E-02	9.183611040275345E+02	9.183611040275345E+02
7.228228228228215E-02	9.182637897491210E+02	9.182637897491210E+02
7.262262262262248E-02	9.181670286811968E+02	9.181670286811968E+02
7.296296296296281E-02	9.180708210384095E+02	9.180708210384095E+02
7.330330330330315E-02	9.179751670296004E+02	9.179751670296004E+02
7.364364364364348E-02	9.182306366449152E+02	9.182306366449152E+02
7.398398398398381E-02	9.181360127814132E+02	9.181360127814132E+02
7.432432432432415E-02	9.180419429961654E+02	9.180419429961654E+02
7.466466466466448E-02	9.179484274751998E+02	9.179484274751998E+02
7.500500500500482E-02	9.178554663992451E+02	9.178554663992451E+02
7.534534534534515E-02	9.177630599438251E+02	9.177630599438251E+02
7.568568568568548E-02	9.180213247727413E+02	9.180213247727413E+02
7.602602602602582E-02	9.179299495233374E+02	9.179299495233374E+02
7.636636636636615E-02	9.178391292388386E+02	9.178391292388386E+02
7.670670670670648E-02	9.177488640742574E+02	9.177488640742574E+02
7.704704704704682E-02	9.176591541798530E+02	9.176591541798530E+02
7.738738738738715E-02	9.175699997012168E+02	9.175699997012168E+02
7.772772772772749E-02	9.174814007793555E+02	9.174814007793555E+02
7.806806806806782E-02	9.177429369280555E+02	9.177429369280555E+02
7.840840840840815E-02	9.176553699941260E+02	9.176553699941260E+02
7.874874874874849E-02	9.175683588573527E+02	9.175683588573527E+02
7.908908908908882E-02	9.174819036405959E+02	9.174819036405959E+02
7.942942942942915E-02	9.173960044625255E+02	9.173960044625255E+02
7.976976976976949E-02	9.173106614376943E+02	9.173106614376943E+02
8.011011011010982E-02	9.175749909053019E+02	9.175749909053019E+02
8.045045045045016E-02	9.174906801272566E+02	9.174906801272566E+02
8.079079079079049E-02	9.174069256628113E+02	9.174069256628113E+02
8.113113113113082E-02	9.173237276101665E+02	9.173237276101665E+02
8.147147147147116E-02	9.172410860637590E+02	9.172410860637590E+02
8.181181181181149E-02	9.171590011143290E+02	9.171590011143290E+02
8.215215215215182E-02	9.174261212493464E+02	9.174261212493464E+02
8.249249249249216E-02	9.173450684889920E+02	9.173450684889920E+02
8.283283283283249E-02	9.172645724136141E+02	9.172645724136141E+02
8.317317317317283E-02	9.171846330992066E+02	9.171846330992066E+02
8.351351351351316E-02	9.171052506183840E+02	9.171052506183840E+02
8.385385385385349E-02	9.170264250404396E+02	9.170264250404396E+02
8.419419419419383E-02	9.169481564314052E+02	9.169481564314052E+02
8.453453453453416E-02	9.172185384849056E+02	9.172185384849056E+02
8.487487487487450E-02	9.171413016762793E+02	9.171413016762793E+02
8.521521521521483E-02	9.170646218490298E+02	9.170646218490298E+02
8.555555555555516E-02	9.169884990561135E+02	9.169884990561135E+02
8.589589589589550E-02	9.169129333475055E+02	9.169129333475055E+02
8.623623623623583E-02	9.168379247702535E+02	9.168379247702535E+02
8.657657657657616E-02	9.171110885855007E+02	9.171110885855007E+02
8.691691691691650E-02	9.170371111619147E+02	9.170371111619147E+02
8.725725725725683E-02	9.169636908238067E+02	9.169636908238067E+02
8.759759759759717E-02	9.168908276064282E+02	9.168908276064282E+02
8.793793793793750E-02	9.168185215423551E+02	9.168185215423551E+02
8.827827827827783E-02	9.167467726615383E+02	9.167467726615383E+02
8.861861861861817E-02	9.170227127846845E+02	9.170227127846845E+02
8.895895895895850E-02	9.169519941767634E+02	9.169519941767634E+02
8.929929929929883E-02	9.168818326533590E+02	9.168818326533590E+02
8.963963963963917E-02	9.168122282337820E+02	9.168122282337820E+02
8.997997997997950E-02	9.167431809349457E+02	9.167431809349457E+02
9.032032032031984E-02	9.166746907714105E+02	9.166746907714105E+02
9.066066066066017E-02	9.169534010130133E+02	9.169534010130133E+02
9.100100100100050E-02	9.168859400284969E+02	9.168859400284969E+02
9.134134134134084E-02	9.168190360326440E+02	9.168190360326440E+02
9.168168168168117E-02	9.167526890304246E+02	9.167526890304246E+02
9.202202202202150E-02	9.166868990246638E+02	9.166868990246638E+02
9.236236236236184E-02	9.166216660160813E+02	9.166216660160813E+02
9.270270270270217E-02	9.169031395112120E+02	9.169031395112120E+02
9.304304304304251E-02	9.168389343936140E+02	9.168389343936140E+02
9.338338338338284E-02	9.167752860831627E+02	9.167752860831627E+02
9.372372372372317E-02	9.167121945719416E+02	9.167121945719416E+02
9.406406406406351E-02	9.166496598501200E+02	9.166496598501200E+02
9.440440440440384E-02	9.165876819059873E+02	9.165876819059873E+02
9.474474474474417E-02	9.168719111686923E+02	9.168719111686923E+02
9.508508508508451E-02	9.168109596505610E+02	9.168109596505610E+02
9.542542542542484E-02	9.167505646807911E+02	9.167505646807911E+02
9.576576576576518E-02	9.166907262399053E+02	9.166907262399053E+02
9.610610610610551E-02	9.166314443067221E+02	9.166314443067221E+02
9.644644644644584E-02	9.165727188583877E+02	9.165727188583877E+02
9.678678678678618E-02	9.168596958311535E+02	9.168596958311535E+02
9.712712712712651E-02	9.168019951825572E+02	9.168019951825572E+02
9.746746746746685E-02	9.167448507539241E+02	9.167448507539241E+02
9.780780780780718E-02	9.166882625154290E+02	9.166882625154290E+02
9.814814814814751E-02	9.166322304357327E+02	9.166322304357327E+02
9.848848848848785E-02	9.165767544820147E+02	9.165767544820147E+02
9.882882882882818E-02	9.165218346200016E+02	9.165218346200016E+02
9.916916916916851E-02	9.168120176535729E+02	9.168120176535729E+02
9.950950950950885E-02	9.167581205553029E+02	9.167581205553029E+02
9.984984984984918E-02	9.167047792469224E+02	9.167047792469224E+02
1.001901901901895E-01	9.166519936880306E+02	9.166519936880306E+02
1.005305305305298E-01	9.165997638369186E+02	9.165997638369186E+02
1.008708708708702E-01	9.165480896505956E+02	9.165480896505956E+02
1.012112112112105E-01	9.168410012604662E+02	9.168410012604662E+02
1.015515515515509E-01	9.167903479104540E+02	9.167903479104540E+02
1.018918918918912E-01	9.167402498949092E+02	9.167402498949092E+02
1.022322322322315E-01	9.166907071653743E+02	9.166907071653743E+02
1.025725725725719E-01	9.166417196722430E+02	9.166417196722430E+02
1.029129129129122E-01	9.165932873647870E+02	9.165932873647870E+02
1.032532532532525E-01	9.168889179638843E+02	9.168889179638843E+02
1.035935935935929E-01	9.168415044453013E+02	9.168415044453013E+02
1.039339339339332E-01	9.167946457564055E+02	9.167946457564055E+02
1.042742742742735E-01	9.167483418416086E+02	9.167483418416086E+02
1.046146146146139E-01	9.167025926443216E+02	9.167025926443216E+02
1.049549549549542E-01	9.166573981069798E+02	9.166573981069798E+02
1.052952952952945E-01	9.169557377002239E+02	9.169557377002239E+02
1.056356356356349E-01	9.169115597951843E+02	9.169115597951843E+02
1.059759759759752E-01	9.168679361710517E+02	9.168679361710517E+02
1.063163163163155E-01	9.168248667659639E+02	9.168248667659639E+02
1.066566566566559E-01	9.167823515171926E+02	9.167823515171926E+02
1.069969969969962E-01	9.167403903611699E+02	9.167403903611699E+02
1.073373373373365E-01	9.170414285766497E+02	9.170414285766497E+02
1.076776776776769E-01	9.170004817972415E+02	9.170004817972415E+02
1.080180180180172E-01	9.169600887109118E+02	9.169600887109118E+02
1.083583583583575E-01	9.169202492503144E+02	9.169202492503144E+02
1.086986986986979E-01	9.168809633473653E+02	9.168809633473653E+02
1.090390390390382E-01	9.168422309332640E+02	9.168422309332640E+02
1.093793793793785E-01	9.171459570509306E+02	9.171459570509306E+02
1.097197197197189E-01	9.171082366678891E+02	9.171082366678891E+02
1.100600600600592E-01	9.170710693556309E+02	9.170710693556309E+02
1.104004004003995E-01	9.170344550420599E+02	9.170344550420599E+02
1.107407407407399E-01	9.169983936544614E+02	9.169983936544614E+02
1.110810810810802E-01	9.169628851195218E+02	9.169628851195218E+02
1.114214214214205E-01	9.172692880976556E+02	9.172692880976556E+02
1.117617617617609E-01	9.172347891669119E+02	9.172347891669119E+02
1.121021021021012E-01	9.172008426544419E+02	9.172008426544419E+02
1.124424424424415E-01	9.171674484840823E+02	9.171674484840823E+02
