# mass, thermodynamic potential
0.000000000000000E+00	                 NAN
1.001001001001001E+00	-1.251847079342542E+02
2.002002002002002E+00	-1.251803657990631E+02
3.003003003003003E+00	-1.251731292101281E+02
4.004004004004004E+00	-1.251625160735252E+02
5.005005005005005E+00	-1.251494915323992E+02
6.006006006006006E+00	-1.251330918648955E+02
7.007007007007006E+00	-1.251142821194389E+02
8.008008008008007E+00	-1.250920988711732E+02
9.009009009009008E+00	-1.250670255402811E+02
1.001001001001001E+01	-1.250390632780245E+02
1.101101101101101E+01	-1.250082134171853E+02
1.201201201201201E+01	-1.249744774719743E+02
1.301301301301301E+01	-1.249378571379475E+02
1.401401401401401E+01	-1.248983542919063E+02
1.501501501501501E+01	-1.248554888302688E+02
1.601601601601601E+01	-1.248102266914198E+02
1.701701701701701E+01	-1.247616064944546E+02
1.801801801801802E+01	-1.247105942176859E+02
1.901901901901902E+01	-1.246562286386743E+02
2.002002002002002E+01	-1.245989944574280E+02
2.102102102102102E+01	-1.245388944226256E+02
2.202202202202202E+01	-1.244759314631833E+02
2.302302302302302E+01	-1.244101086880769E+02
2.402402402402402E+01	-1.243414293861601E+02
2.502502502502502E+01	-1.242694153938824E+02
2.602602602602602E+01	-1.241950330955369E+02
2.702702702702702E+01	-1.241173236696704E+02
2.802802802802802E+01	-1.240372531593712E+02
2.902902902902902E+01	-1.239538632756266E+02
3.003003003003002E+01	-1.238676394020285E+02
3.103103103103102E+01	-1.237785856872256E+02
3.203203203203203E+01	-1.236867064581302E+02
3.303303303303303E+01	-1.235920062196396E+02
3.403403403403403E+01	-1.234944896543657E+02
3.503503503503503E+01	-1.233936814475360E+02
3.603603603603603E+01	-1.232905465500066E+02
3.703703703703703E+01	-1.231841305295698E+02
3.803803803803803E+01	-1.230753976309916E+02
3.903903903903903E+01	-1.229633943088838E+02
4.004004004004003E+01	-1.228486056883730E+02
4.104104104104103E+01	-1.227315164500055E+02
4.204204204204203E+01	-1.226111738058485E+02
4.304304304304303E+01	-1.224875841602434E+02
4.404404404404404E+01	-1.223617113459563E+02
4.504504504504504E+01	-1.222330826079315E+02
4.604604604604604E+01	-1.221017043446641E+02
4.704704704704704E+01	-1.219671044562861E+02
4.804804804804804E+01	-1.218302464203093E+02
4.904904904904904E+01	-1.216901803325491E+02
5.005005005005004E+01	-1.215473915613625E+02
5.105105105105104E+01	-1.214018869754627E+02
5.205205205205204E+01	-1.212541510805645E+02
5.305305305305304E+01	-1.211032360335325E+02
5.405405405405404E+01	-1.209491495932098E+02
5.505505505505504E+01	-1.207928538679162E+02
5.605605605605604E+01	-1.206338792417769E+02
5.705705705705704E+01	-1.204722336084455E+02
5.805805805805804E+01	-1.203074477348528E+02
5.905905905905905E+01	-1.201400072106849E+02
6.006006006006005E+01	-1.199703960177494E+02
6.106106106106105E+01	-1.197976699141864E+02
6.206206206206205E+01	-1.196223138108380E+02
6.306306306306305E+01	-1.194443362154288E+02
6.406406406406406E+01	-1.192637458022673E+02
6.506506506506506E+01	-1.190805514117183E+02
6.606606606606606E+01	-1.188947620496428E+02
6.706706706706706E+01	-1.187059113696891E+02
6.806806806806806E+01	-1.185149592808825E+02
6.906906906906906E+01	-1.183209649066825E+02
7.007007007007006E+01	-1.181248875614929E+02
7.107107107107106E+01	-1.179257870897536E+02
7.207207207207206E+01	-1.177241482716900E+02
7.307307307307306E+01	-1.175199808618067E+02
7.407407407407406E+01	-1.173132947759836E+02
7.507507507507506E+01	-1.171041000908563E+02
7.607607607607606E+01	-1.168924070431844E+02
7.707707707707706E+01	-1.166782260292130E+02
7.807807807807806E+01	-1.164615676040230E+02
7.907907907907907E+01	-1.162419679245213E+02
8.008008008008007E+01	-1.160203863138590E+02
8.108108108108107E+01	-1.157958851361091E+02
8.208208208208207E+01	-1.155689497365261E+02
8.308308308308307E+01	-1.153395910601462E+02
8.408408408408407E+01	-1.151082938983691E+02
8.508508508508507E+01	-1.148741220736206E+02
8.608608608608607E+01	-1.146370871480617E+02
8.708708708708707E+01	-1.143981479131480E+02
8.808808808808807E+01	-1.141568424440588E+02
8.908908908908907E+01	-1.139131826077519E+02
9.009009009009007E+01	-1.136667064259686E+02
9.109109109109107E+01	-1.134183733215086E+02
9.209209209209207E+01	-1.131672479806170E+02
9.309309309309307E+01	-1.129138164718242E+02
9.409409409409407E+01	-1.126580910161611E+02
9.509509509509508E+01	-1.124000839826831E+02
9.609609609609608E+01	-1.121398078876714E+02
9.709709709709708E+01	-1.118772753938288E+02
9.809809809809808E+01	-1.116124993094641E+02
9.909909909909908E+01	-1.113454925876808E+02
1.001001001001001E+02	-1.110762683255489E+02
1.011011011011011E+02	-1.108043653571503E+02
1.021021021021021E+02	-1.105307450520004E+02
1.031031031031031E+02	-1.102544723843212E+02
1.041041041041041E+02	-1.099760350309666E+02
1.051051051051051E+02	-1.096954464032988E+02
1.061061061061061E+02	-1.094131945053259E+02
1.071071071071071E+02	-1.091283442563722E+02
1.081081081081081E+02	-1.088409090790205E+02
1.091091091091091E+02	-1.085518522494526E+02
1.101101101101101E+02	-1.082607132808498E+02
1.111111111111111E+02	-1.079675064096609E+02
1.121121121121121E+02	-1.076717701148164E+02
1.131131131131131E+02	-1.073744697632865E+02
1.141141141141141E+02	-1.070746683626644E+02
1.151151151151151E+02	-1.067728561805061E+02
1.161161161161161E+02	-1.064695240790870E+02
1.171171171171171E+02	-1.061637340972420E+02
1.181181181181181E+02	-1.058559773780466E+02
1.191191191191191E+02	-1.055462688175976E+02
1.201201201201201E+02	-1.052346234397169E+02
1.211211211211211E+02	-1.049205781772280E+02
1.221221221221221E+02	-1.046051039780123E+02
1.231231231231231E+02	-1.042877386594105E+02
1.241241241241241E+02	-1.039680181706349E+02
1.251251251251251E+02	-1.036469161574023E+02
1.261261261261261E+02	-1.033234891461129E+02
1.271271271271271E+02	-1.029982322128694E+02
1.281281281281281E+02	-1.026711609787976E+02
1.291291291291291E+02	-1.023427725495376E+02
1.301301301301301E+02	-1.020121205401674E+02
1.311311311311312E+02	-1.016792194722698E+02
1.321321321321322E+02	-1.013450496245064E+02
1.331331331331332E+02	-1.010091453559103E+02
1.341341341341342E+02	-1.006715229897873E+02
1.351351351351352E+02	-1.003317140531472E+02
1.361361361361362E+02	-9.999070365305352E+01
1.371371371371372E+02	-9.964753841839592E+01
1.381381381381383E+02	-9.930271964156054E+01
1.391391391391393E+02	-9.895675062763621E+01
1.401401401401403E+02	-9.860867482805179E+01
1.411411411411413E+02	-9.825899542031857E+01
1.421421421421423E+02	-9.790772922058477E+01
1.431431431431433E+02	-9.755489315051409E+01
1.441441441441443E+02	-9.720050423611201E+01
1.451451451451454E+02	-9.684408802373264E+01
1.461461461461464E+02	-9.648664366744561E+01
1.471471471471474E+02	-9.612769803214769E+01
1.481481481481484E+02	-9.576677414714413E+01
1.491491491491494E+02	-9.540487672426070E+01
1.501501501501504E+02	-9.504103399646056E+01
1.511511511511515E+02	-9.467575770935628E+01
1.521521521521525E+02	-9.430906530233460E+01
1.531531531531535E+02	-9.394097430982038E+01
1.541541541541545E+02	-9.357150236004236E+01
1.551551551551555E+02	-9.320066717375721E+01
1.561561561561565E+02	-9.282848656299393E+01
1.571571571571575E+02	-9.245497842976556E+01
1.581581581581586E+02	-9.207965726110979E+01
1.591591591591596E+02	-9.170354653946288E+01
1.601601601601606E+02	-9.132616240421567E+01
1.611611611611616E+02	-9.094701568811251E+01
1.621621621621626E+02	-9.056662945590961E+01
1.631631631631636E+02	-9.018553071057840E+01
1.641641641641646E+02	-8.980272061551568E+01
1.651651651651657E+02	-8.941872550221660E+01
1.661661661661667E+02	-8.903356365633408E+01
1.671671671671677E+02	-8.864725344219414E+01
1.681681681681687E+02	-8.825981330142713E+01
1.691691691691697E+02	-8.787126175159847E+01
1.701701701701707E+02	-8.748109909438244E+01
1.711711711711717E+02	-8.709037875148942E+01
1.721721721721728E+02	-8.669808206232847E+01
1.731731731731738E+02	-8.630526738713525E+01
1.741741741741748E+02	-8.591091092052011E+01
1.751751751751758E+02	-8.551607693729648E+01
1.761761761761768E+02	-8.511973550420407E+01
1.771771771771778E+02	-8.472242915590414E+01
1.781781781781789E+02	-8.432417667253503E+01
1.791791791791799E+02	-8.392499689817851E+01
1.801801801801809E+02	-8.352490873939860E+01
1.811811811811819E+02	-8.312393116377825E+01
1.821821821821829E+02	-8.272208319844140E+01
1.831831831831839E+02	-8.231884616793195E+01
1.841841841841849E+02	-8.191531258923442E+01
1.851851851851860E+02	-8.151096592726662E+01
1.861861861861870E+02	-8.110528211030260E+01
1.871871871871880E+02	-8.069936458901748E+01
1.881881881881890E+02	-8.029214456694444E+01
1.891891891891900E+02	-7.988418441974909E+01
1.901901901901910E+02	-7.947550325033808E+01
1.911911911911920E+02	-7.906612020997909E+01
1.921921921921931E+02	-7.865660843758860E+01
1.931931931931941E+02	-7.824532535398748E+01
1.941941941941951E+02	-7.783395206866544E+01
1.951951951951961E+02	-7.742195396986472E+01
1.961961961961971E+02	-7.700935042715128E+01
1.971971971971981E+02	-7.659616084898380E+01
1.981981981981992E+02	-7.618183839759376E+01
1.991991991992002E+02	-7.576753246732505E+01
2.002002002002012E+02	-7.535212833434389E+01
2.012012012012022E+02	-7.493678366855920E+01
2.022022022022032E+02	-7.452037515590882E+01
2.032032032032042E+02	-7.410349257264943E+01
2.042042042042052E+02	-7.368615522633263E+01
2.052052052052063E+02	-7.326838245312729E+01
2.062062062062073E+02	-7.285019361614104E+01
2.072072072072083E+02	-7.243160810373502E+01
2.082082082082093E+02	-7.201264532782352E+01
2.092092092092103E+02	-7.159332472217238E+01
2.102102102102113E+02	-7.117366574067046E+01
2.112112112112123E+02	-7.075368785561886E+01
2.122122122122134E+02	-7.033281268171504E+01
2.132132132132144E+02	-6.991225249338731E+01
2.142142142142154E+02	-6.949082905327805E+01
2.152152152152164E+02	-6.906976421380477E+01
2.162162162162174E+02	-6.864786979076780E+01
2.172172172172184E+02	-6.822576777700942E+01
2.182182182182194E+02	-6.780409000909731E+01
2.192192192192205E+02	-6.738163298721884E+01
2.202202202202215E+02	-6.695902624026758E+01
2.212212212212225E+02	-6.653628903222125E+01
2.222222222222235E+02	-6.611344062914804E+01
2.232232232232245E+02	-6.569050029736673E+01
2.242242242242255E+02	-6.526685866508569E+01
2.252252252252266E+02	-6.484378924571001E+01
2.262262262262276E+02	-6.442068558295387E+01
2.272272272272286E+02	-6.399693009535122E+01
2.282282282282296E+02	-6.357381237613208E+01
2.292292292292306E+02	-6.315007564897996E+01
2.302302302302316E+02	-6.272702041424418E+01
2.312312312312326E+02	-6.230337856247297E+01
2.322322322322337E+02	-6.188046225297512E+01
2.332332332332347E+02	-6.145699128352726E+01
2.342342342342357E+02	-6.103363285657269E+01
2.352352352352367E+02	-6.061040582837222E+01
2.362362362362377E+02	-6.018732903438740E+01
2.372372372372387E+02	-5.976442128727831E+01
2.382382382382397E+02	-5.934170137491128E+01
2.392392392392408E+02	-5.891918805834484E+01
2.402402402402418E+02	-5.849690006980836E+01
2.412412412412428E+02	-5.807417836941067E+01
2.422422422422438E+02	-5.765239368741732E+01
2.432432432432448E+02	-5.723089025371382E+01
2.442442442442458E+02	-5.680899954278766E+01
2.452452452452468E+02	-5.638811069098574E+01
2.462462462462479E+02	-5.596686526692929E+01
2.472472472472489E+02	-5.554666474474016E+01
2.482482482482499E+02	-5.512613786546308E+01
2.492492492492509E+02	-5.470599619031236E+01
2.502502502502519E+02	-5.428625782169274E+01
2.512512512512529E+02	-5.386764966242481E+01
2.522522522522540E+02	-5.344877511678305E+01
2.532532532532550E+02	-5.303035796636595E+01
2.542542542542560E+02	-5.261241610955722E+01
2.552552552552570E+02	-5.219496738853923E+01
2.562562562562580E+02	-5.177802958706798E+01
2.572572572572590E+02	-5.136089191519659E+01
2.582582582582600E+02	-5.094502553405118E+01
2.592592592592609E+02	-5.052972298315944E+01
2.602602602602619E+02	-5.011426360415362E+01
2.612612612612629E+02	-4.970013750497219E+01
2.622622622622639E+02	-4.928662754665811E+01
2.632632632632649E+02	-4.887300258878713E+01
2.642642642642659E+02	-4.846077286249874E+01
2.652652652652669E+02	-4.804845567924440E+01
2.662662662662678E+02	-4.763681638922662E+01
2.672672672672688E+02	-4.722663299520218E+01
2.682682682682698E+02	-4.681640292180873E+01
2.692692692692708E+02	-4.640690100619986E+01
2.702702702702718E+02	-4.599814381421220E+01
2.712712712712728E+02	-4.559014782334452E+01
2.722722722722738E+02	-4.518292942026255E+01
2.732732732732748E+02	-4.477650489832740E+01
2.742742742742757E+02	-4.437089045506582E+01
2.752752752752767E+02	-4.396610218964861E+01
2.762762762762777E+02	-4.356215610033269E+01
2.772772772772787E+02	-4.315906808188447E+01
2.782782782782797E+02	-4.275605619236558E+01
2.792792792792807E+02	-4.235472796602062E+01
2.802802802802817E+02	-4.195430480686127E+01
2.812812812812826E+02	-4.155399456979239E+01
2.822822822822836E+02	-4.115542407035082E+01
2.832832832832846E+02	-4.075699059606268E+01
2.842842842842856E+02	-4.036033349065247E+01
2.852852852852866E+02	-3.996383688756532E+01
2.862862862862876E+02	-3.956915294141618E+01
2.872872872872886E+02	-3.917465233987286E+01
2.882882882882896E+02	-3.878117016465194E+01
2.892892892892905E+02	-3.838872078282793E+01
2.902902902902915E+02	-3.799815437600000E+01
2.912912912912925E+02	-3.760781609240894E+01
2.922922922922935E+02	-3.721855292183864E+01
2.932932932932945E+02	-3.683037868314523E+01
2.942942942942955E+02	-3.644330705127322E+01
2.952952952952965E+02	-3.605735155431694E+01
2.962962962962974E+02	-3.567252557050097E+01
2.972972972972984E+02	-3.528884232517566E+01
2.982982982982994E+02	-3.490631488775171E+01
2.992992992993004E+02	-3.452409304072489E+01
3.003003003003014E+02	-3.414391269806356E+01
3.013013013013024E+02	-3.376492639774278E+01
3.023023023023034E+02	-3.338714655615968E+01
3.033033033033043E+02	-3.300971094011811E+01
3.043043043043053E+02	-3.263437746723639E+01
3.053053053053063E+02	-3.226028665983677E+01
3.063063063063073E+02	-3.188656747442337E+01
3.073073073073083E+02	-3.151499384822864E+01
3.083083083083093E+02	-3.114380956216064E+01
3.093093093093103E+02	-3.077479849923157E+01
3.103103103103113E+02	-3.040619376747964E+01
3.113113113113122E+02	-3.003978912707817E+01
3.123123123123132E+02	-2.967380707093344E+01
3.133133133133142E+02	-2.930915103069265E+01
3.143143143143152E+02	-2.894673328502722E+01
3.153153153153162E+02	-2.858476162324405E+01
3.163163163163172E+02	-2.822414593179474E+01
3.173173173173182E+02	-2.786489578226701E+01
3.183183183183191E+02	-2.750793133232946E+01
3.193193193193201E+02	-2.715144197026439E+01
3.203203203203211E+02	-2.679634552617335E+01
3.213213213213221E+02	-2.644265068511959E+01
3.223223223223231E+02	-2.609036590145206E+01
3.233233233233241E+02	-2.573949939486693E+01
3.243243243243251E+02	-2.539005914638665E+01
3.253253253253260E+02	-2.504205289430456E+01
3.263263263263270E+02	-2.469548813005758E+01
3.273273273273280E+02	-2.435037209406755E+01
3.283283283283290E+02	-2.400671177149707E+01
3.293293293293300E+02	-2.366451388797077E+01
3.303303303303310E+02	-2.332378490521114E+01
3.313313313313320E+02	-2.298453101663699E+01
3.323323323323330E+02	-2.264675814288330E+01
3.333333333333339E+02	-2.230953774204227E+01
3.343343343343349E+02	-2.197474242569479E+01
3.353353353353359E+02	-2.164144427339988E+01
3.363363363363369E+02	-2.130964807129703E+01
3.373373373373379E+02	-2.097935830936740E+01
3.383383383383389E+02	-2.064964114291615E+01
3.393393393393399E+02	-2.032237577908336E+01
3.403403403403408E+02	-1.999662858298370E+01
3.413413413413418E+02	-1.967240281306113E+01
3.423423423423428E+02	-1.934876194396793E+01
3.433433433433438E+02	-1.902758712194873E+01
3.443443443443448E+02	-1.870794164746849E+01
3.453453453453458E+02	-1.838888815437349E+01
3.463463463463468E+02	-1.807230677141388E+01
3.473473473473477E+02	-1.775725963661716E+01
3.483483483483487E+02	-1.744280941572879E+01
3.493493493493497E+02	-1.713083335198280E+01
3.503503503503507E+02	-1.681945664531122E+01
3.513513513513517E+02	-1.651055280559558E+01
3.523523523523527E+02	-1.620318429105146E+01
3.533533533533537E+02	-1.589641633639258E+01
3.543543543543547E+02	-1.559211605539258E+01
3.553553553553556E+02	-1.528934717842003E+01
3.563563563563566E+02	-1.498717772292775E+01
3.573573573573576E+02	-1.468746605135266E+01
3.583583583583586E+02	-1.438835209341687E+01
3.593593593593596E+02	-1.409168628355474E+01
3.603603603603606E+02	-1.379653724622540E+01
3.613613613613616E+02	-1.350198069734915E+01
3.623623623623625E+02	-1.320985395167600E+01
3.633633633633635E+02	-1.291922997211714E+01
3.643643643643645E+02	-1.262919067501753E+01
3.653653653653655E+02	-1.234155735640934E+01
3.663663663663665E+02	-1.205540864332352E+01
3.673673673673675E+02	-1.176983412053642E+01
3.683683683683685E+02	-1.148663594521713E+01
3.693693693693695E+02	-1.120489983636207E+01
3.703703703703704E+02	-1.092372462390313E+01
3.713713713713714E+02	-1.064488997411490E+01
3.723723723723724E+02	-1.036749023231823E+01
3.733733733733734E+02	-1.009151520647856E+01
3.743743743743744E+02	-9.816954149358480E+00
3.753753753753754E+02	-9.542924404139740E+00
3.763763763763764E+02	-9.271161445246889E+00
3.773773773773773E+02	-9.000777000273501E+00
3.783783783783783E+02	-8.731757998436024E+00
3.793793793793793E+02	-8.464090758418479E+00
3.803803803803803E+02	-8.197760976287555E+00
3.813813813813813E+02	-7.932753713058446E+00
3.823823823823823E+02	-7.669053381885078E+00
3.833833833833833E+02	-7.406643734832869E+00
3.843843843843842E+02	-7.145507849234491E+00
3.853853853853852E+02	-6.886441977409504E+00
3.863863863863862E+02	-6.627792918875912E+00
3.873873873873872E+02	-6.370362382778694E+00
3.883883883883882E+02	-6.114923238345455E+00
3.893893893893892E+02	-5.859861665001063E+00
3.903903903903902E+02	-5.605956728030378E+00
3.913913913913912E+02	-5.353955160920577E+00
3.923923923923921E+02	-5.102287526975942E+00
3.933933933933931E+02	-4.852459307963272E+00
3.943943943943941E+02	-4.603676178647675E+00
3.953953953953951E+02	-4.355177180504143E+00
3.963963963963961E+02	-4.108413219015347E+00
3.973973973973971E+02	-3.862612731364152E+00
3.983983983983981E+02	-3.617746522484595E+00
3.993993993993990E+02	-3.373784414623515E+00
4.004004004004000E+02	-3.130695221253518E+00
4.014014014014010E+02	-2.888446719773128E+00
4.024024024024020E+02	-2.647669108346236E+00
4.034034034034030E+02	-2.406989397161396E+00
4.044044044044040E+02	-2.167046803467201E+00
4.054054054054050E+02	-1.928433203093846E+00
4.064064064064059E+02	-1.690457656078706E+00
4.074074074074069E+02	-1.453079800456635E+00
4.084084084084079E+02	-1.215665655020075E+00
4.094094094094089E+02	-9.793697428849555E-01
4.104104104104099E+02	-7.441088325472265E-01
4.114114114114109E+02	-5.086912357601250E-01
4.124124124124119E+02	-2.736489494382113E-01
4.134134134134129E+02	-3.945735813704232E-02
4.144144144144138E+02	1.944876826519248E-01
4.154154154154148E+02	4.287356784793701E-01
4.164164164164158E+02	6.623355494780299E-01
4.174174174174168E+02	8.953897033688918E-01
4.184184184184178E+02	1.128904052058715E+00
4.194194194194188E+02	1.362025290672591E+00
4.204204204204198E+02	1.595701927971731E+00
4.214214214214207E+02	1.829148915599490E+00
4.224224224224217E+02	2.062870075444152E+00
4.234234234234227E+02	2.296570752459957E+00
4.244244244244237E+02	2.531078586257536E+00
4.254254254254247E+02	2.765755460351556E+00
4.264264264264257E+02	3.000736753110687E+00
4.274274274274267E+02	3.236757233526077E+00
4.284284284284277E+02	3.473295946233520E+00
4.294294294294286E+02	3.710763671295808E+00
4.304304304304296E+02	3.949260674698962E+00
4.314314314314306E+02	4.188670428665773E+00
4.324324324324316E+02	4.429364690881812E+00
4.334334334334326E+02	4.671278073594294E+00
4.344344344344336E+02	4.914758928895026E+00
4.354354354354346E+02	5.159796161884969E+00
4.364364364364355E+02	5.406718517844638E+00
4.374374374374365E+02	5.655574131277717E+00
4.384384384384375E+02	5.906678224210737E+00
4.394394394394385E+02	6.160146683175299E+00
4.404404404404395E+02	6.416190140992057E+00
4.414414414414405E+02	6.675218264638261E+00
4.424424424424415E+02	6.937466125291394E+00
4.434434434434424E+02	7.203367710916154E+00
