# mass, thermodynamic potential
0.000000000000000E+00	                 NAN
1.001001001001001E+00	-9.789467091094639E+01
2.002002002002002E+00	-9.789098531487980E+01
3.003003003003003E+00	-9.788484294349473E+01
4.004004004004004E+00	-9.787624422986346E+01
5.005005005005005E+00	-9.786414037732357E+01
6.006006006006006E+00	-9.785063029613957E+01
7.007007007007006E+00	-9.783361659833326E+01
8.008008008008007E+00	-9.781414944423568E+01
9.009009009009008E+00	-9.779327844654517E+01
1.001001001001001E+01	-9.776890712457362E+01
1.101101101101101E+01	-9.774208577934223E+01
1.201201201201201E+01	-9.771281586002169E+01
1.301301301301301E+01	-9.768005044836309E+01
1.401401401401401E+01	-9.764588814794024E+01
1.501501501501501E+01	-9.760928253426528E+01
1.601601601601601E+01	-9.756918740938681E+01
1.701701701701701E+01	-9.752770112058033E+01
1.801801801801802E+01	-9.748272997653976E+01
1.901901901901902E+01	-9.743532460240613E+01
2.002002002002002E+01	-9.738548745782100E+01
2.102102102102102E+01	-9.733322117421767E+01
2.202202202202202E+01	-9.727852855463561E+01
2.302302302302302E+01	-9.722141257354406E+01
2.402402402402402E+01	-9.716187637664916E+01
2.502502502502502E+01	-9.709887722519807E+01
2.602602602602602E+01	-9.703451035758553E+01
2.702702702702702E+01	-9.696668809750781E+01
2.802802802802802E+01	-9.689750470114586E+01
2.902902902902902E+01	-9.682487366491796E+01
3.003003003003002E+01	-9.674984430586619E+01
3.103103103103102E+01	-9.667242059432829E+01
3.203203203203203E+01	-9.659260667023455E+01
3.303303303303303E+01	-9.651040684282088E+01
3.403403403403403E+01	-9.642582559034963E+01
3.503503503503503E+01	-9.633886755982530E+01
3.603603603603603E+01	-9.624849460840778E+01
3.703703703703703E+01	-9.615679730676720E+01
3.803803803803803E+01	-9.606169569299755E+01
3.903903903903903E+01	-9.596423767577335E+01
4.004004004004003E+01	-9.586546925305083E+01
4.104104104104103E+01	-9.576331339329727E+01
4.204204204204203E+01	-9.565881710757640E+01
4.304304304304303E+01	-9.555198601388884E+01
4.404404404404404E+01	-9.544282589625755E+01
4.504504504504504E+01	-9.533030337600667E+01
4.604604604604604E+01	-9.521650316669957E+01
4.704704704704704E+01	-9.510039215522374E+01
4.804804804804804E+01	-9.498093828861874E+01
4.904904904904904E+01	-9.485918719276924E+01
5.005005005005004E+01	-9.473618199931889E+01
5.105105105105104E+01	-9.460985511943909E+01
5.205205205205204E+01	-9.448125083424839E+01
5.305305305305304E+01	-9.435037603652563E+01
5.405405405405404E+01	-9.421723778127216E+01
5.505505505505504E+01	-9.408184328525658E+01
5.605605605605604E+01	-9.394316555055184E+01
5.705705705705704E+01	-9.380328083012910E+01
5.805805805805804E+01	-9.366012915517376E+01
5.905905905905905E+01	-9.351578451605155E+01
6.006006006006005E+01	-9.336818935415931E+01
6.106106106106105E+01	-9.321838468557462E+01
6.206206206206205E+01	-9.306740945889442E+01
6.306306306306305E+01	-9.291320924769570E+01
6.406406406406406E+01	-9.275682402944085E+01
6.506506506506506E+01	-9.259723266414267E+01
6.606606606606606E+01	-9.243650313044100E+01
6.706706706706706E+01	-9.227361425704748E+01
6.806806806806806E+01	-9.210754702735221E+01
6.906906906906906E+01	-9.194036620733141E+01
7.007007007007006E+01	-9.177002613102468E+01
7.107107107107106E+01	-9.159858974383178E+01
7.207207207207206E+01	-9.142401332401050E+01
7.307307307307306E+01	-9.124733316360835E+01
7.407407407407406E+01	-9.106855872374990E+01
7.507507507507506E+01	-9.088769961724302E+01
7.607607607607606E+01	-9.070476560793168E+01
7.707707707707706E+01	-9.051874379633091E+01
7.807807807807806E+01	-9.033168997810981E+01
7.907907907907907E+01	-9.014259132586221E+01
8.008008008008007E+01	-8.995043668346034E+01
8.108108108108107E+01	-8.975727933230473E+01
8.208208208208207E+01	-8.956108773482856E+01
8.308308308308307E+01	-8.936289384352494E+01
8.408408408408407E+01	-8.916270823949708E+01
8.508508508508507E+01	-8.896054164936777E+01
8.608608608608607E+01	-8.875640494454638E+01
8.708708708708707E+01	-8.855030914048893E+01
8.808808808808807E+01	-8.834226539594874E+01
8.908908908908907E+01	-8.813126883633095E+01
9.009009009009007E+01	-8.791936323719028E+01
9.109109109109107E+01	-8.770452890754268E+01
9.209209209209207E+01	-8.748880730131714E+01
9.309309309309307E+01	-8.727018112043515E+01
9.409409409409407E+01	-8.704967699739609E+01
9.509509509509508E+01	-8.682730670675483E+01
9.609609609609608E+01	-8.660308216088606E+01
9.709709709709708E+01	-8.637701540915850E+01
9.809809809809808E+01	-8.614911863709585E+01
9.909909909909908E+01	-8.591940416554371E+01
1.001001001001001E+02	-8.568687470488612E+01
1.011011011011011E+02	-8.545356230639663E+01
1.021021021021021E+02	-8.521746125994196E+01
1.031031031031031E+02	-8.498060133421677E+01
1.041041041041041E+02	-8.474097914135427E+01
1.051051051051051E+02	-8.449961602400708E+01
1.061061061061061E+02	-8.425652486200943E+01
1.071071071071071E+02	-8.401171866442792E+01
1.081081081081081E+02	-8.376521056866022E+01
1.091091091091091E+02	-8.351701383949512E+01
1.101101101101101E+02	-8.326714186818344E+01
1.111111111111111E+02	-8.301560817150403E+01
1.121121121121121E+02	-8.276142285380865E+01
1.131131131131131E+02	-8.250660659148025E+01
1.141141141141141E+02	-8.224916710944990E+01
1.151151151151151E+02	-8.199112334861138E+01
1.161161161161161E+02	-8.173048477202701E+01
1.171171171171171E+02	-8.146826793518949E+01
1.181181181181181E+02	-8.120448684560506E+01
1.191191191191191E+02	-8.093915562958546E+01
1.201201201201201E+02	-8.067228853122378E+01
1.211211211211211E+02	-8.040389991137636E+01
1.221221221221221E+02	-8.013300544868252E+01
1.231231231231231E+02	-7.986161727049512E+01
1.241241241241241E+02	-7.958875122379050E+01
1.251251251251251E+02	-7.931342409127546E+01
1.261261261261261E+02	-7.903664929854222E+01
1.271271271271271E+02	-7.875943792038242E+01
1.281281281281281E+02	-7.847981131828874E+01
1.291291291291291E+02	-7.819878154617663E+01
1.301301301301301E+02	-7.791636361192695E+01
1.311311311311312E+02	-7.763257263077867E+01
1.321321321321322E+02	-7.734742382419199E+01
1.331331331331332E+02	-7.706093251874245E+01
1.341341341341342E+02	-7.677211969674909E+01
1.351351351351352E+02	-7.648298958923306E+01
1.361361361361362E+02	-7.619156978640331E+01
1.371371371371372E+02	-7.589986294264509E+01
1.381381381381383E+02	-7.560589815188087E+01
1.391391391391393E+02	-7.531068466967872E+01
1.401401401401403E+02	-7.501523045316571E+01
1.411411411411413E+02	-7.471756634325084E+01
1.421421421421423E+02	-7.441870098160916E+01
1.431431431431433E+02	-7.411865033297408E+01
1.441441441441443E+02	-7.381743045577286E+01
1.451451451451454E+02	-7.351406590205306E+01
1.461461461461464E+02	-7.321055589548405E+01
1.471471471471474E+02	-7.290592526893715E+01
1.481481481481484E+02	-7.259919911746101E+01
1.491491491491494E+02	-7.229237603640331E+01
1.501501501501504E+02	-7.198349043932194E+01
1.511511511511515E+02	-7.167354998362316E+01
1.521521521521525E+02	-7.136257108589098E+01
1.531531531531535E+02	-7.105156049764400E+01
1.541541541541545E+02	-7.073855418222774E+01
1.551551551551555E+02	-7.042455928971731E+01
1.561561561561565E+02	-7.010860232224741E+01
1.571571571571575E+02	-6.979268036079338E+01
1.581581581581586E+02	-6.947582017708055E+01
1.591591591591596E+02	-6.915803874880294E+01
1.601601601601606E+02	-6.883836254335938E+01
1.611611611611616E+02	-6.851878917303202E+01
1.621621621621626E+02	-6.819735500646584E+01
1.631631631631636E+02	-6.787506755715276E+01
1.641641641641646E+02	-6.755293407816498E+01
1.651651651651657E+02	-6.722899102230531E+01
1.661661661661667E+02	-6.690424600453889E+01
1.671671671671677E+02	-6.657871622961648E+01
1.681681681681687E+02	-6.625241896800071E+01
1.691691691691697E+02	-6.592537155443824E+01
1.701701701701707E+02	-6.559660010266361E+01
1.711711711711717E+02	-6.526810407693620E+01
1.721721721721728E+02	-6.493891016462294E+01
1.731731731731738E+02	-6.460804387550252E+01
1.741741741741748E+02	-6.427750608811129E+01
1.751751751751758E+02	-6.394533047670484E+01
1.761761761761768E+02	-6.361252652566827E+01
1.771771771771778E+02	-6.328010431343091E+01
1.781781781781789E+02	-6.294609625200064E+01
1.791791791791799E+02	-6.261151253165963E+01
1.801801801801809E+02	-6.227637077827467E+01
1.811811811811819E+02	-6.194068866648968E+01
1.821821821821829E+02	-6.160448391818545E+01
1.831831831831839E+02	-6.126777430092989E+01
1.841841841841849E+02	-6.092958202924092E+01
1.851851851851860E+02	-6.059191529755481E+01
1.861861861861870E+02	-6.025280095582548E+01
1.871871871871880E+02	-5.991424826922366E+01
1.881881881881890E+02	-5.957428275394295E+01
1.891891891891900E+02	-5.923491558826981E+01
1.901901901901910E+02	-5.889417010468833E+01
1.911911911911920E+02	-5.855306129167502E+01
1.921921921921931E+02	-5.821160695102208E+01
1.931931931931941E+02	-5.786982491683239E+01
1.941941941941951E+02	-5.752773305388564E+01
1.951951951951961E+02	-5.718534925597123E+01
1.961961961961971E+02	-5.684269144422069E+01
1.971971971971981E+02	-5.649977756543103E+01
1.981981981981992E+02	-5.615662559037537E+01
1.991991991992002E+02	-5.581224990055534E+01
2.002002002002012E+02	-5.546867454742414E+01
2.012012012012022E+02	-5.512391014948525E+01
2.022022022022032E+02	-5.477998315589002E+01
2.032032032032042E+02	-5.443490146535532E+01
2.042042042042052E+02	-5.408968775650646E+01
2.052052052052063E+02	-5.374536727076702E+01
2.062062062062073E+02	-5.339994353264501E+01
2.072072072072083E+02	-5.305444132044386E+01
2.082082082082093E+02	-5.270887847096083E+01
2.092092092092103E+02	-5.236327282876618E+01
2.102102102102113E+02	-5.201764224440331E+01
2.112112112112123E+02	-5.167099220873797E+01
2.122122122122134E+02	-5.132536415888217E+01
2.132132132132144E+02	-5.097976464494013E+01
2.142142142142154E+02	-5.063319661400874E+01
2.152152152152164E+02	-5.028770631965654E+01
2.162162162162174E+02	-4.994128135984556E+01
2.172172172172184E+02	-4.959597132343833E+01
2.182182182182194E+02	-4.924976009175180E+01
2.192192192192205E+02	-4.890368189707397E+01
2.202202202202215E+02	-4.855877438993230E+01
2.212212212212225E+02	-4.821301569692196E+01
2.222222222222235E+02	-4.786744274510511E+01
2.232232232232245E+02	-4.752207304544982E+01
2.242242242242255E+02	-4.717692409194888E+01
2.252252252252266E+02	-4.683201335964441E+01
2.262262262262276E+02	-4.648633221688851E+01
2.272272272272286E+02	-4.614194897810012E+01
2.282282282282296E+02	-4.579785617152538E+01
2.292292292292306E+02	-4.545407117735112E+01
2.302302302302316E+02	-4.510958077382520E+01
2.312312312312326E+02	-4.476646182134300E+01
2.322322322322337E+02	-4.442266984403750E+01
2.332332332332347E+02	-4.408028577352479E+01
2.342342342342357E+02	-4.373726061825437E+01
2.352352352352367E+02	-4.339464404846012E+01
2.362362362362377E+02	-4.305245297811234E+01
2.372372372372387E+02	-4.271070428166013E+01
2.382382382382397E+02	-4.237045349496339E+01
2.392392392392408E+02	-4.202964106615400E+01
2.402402402402418E+02	-4.168932144690143E+01
2.412412412412428E+02	-4.134846922092993E+01
2.422422422422438E+02	-4.100918397750092E+01
2.432432432432448E+02	-4.067044140429334E+01
2.442442442442458E+02	-4.033225803853338E+01
2.452452452452468E+02	-3.999465036041511E+01
2.462462462462479E+02	-3.965658676751491E+01
2.472472472472489E+02	-3.932017806459771E+01
2.482482482482499E+02	-3.898334389410911E+01
2.492492492492509E+02	-3.864819910052802E+01
2.502502502502519E+02	-3.831265877957821E+01
2.512512512512529E+02	-3.797884230494947E+01
2.522522522522540E+02	-3.764465972731250E+01
2.532532532532550E+02	-3.731117938175521E+01
2.542542542542560E+02	-3.697841696812793E+01
2.552552552552570E+02	-3.664638811089071E+01
2.562562562562580E+02	-3.631616726620678E+01
2.572572572572590E+02	-3.598565314645111E+01
2.582582582582600E+02	-3.565591903153609E+01
2.592592592592609E+02	-3.532591796081624E+01
2.602602602602619E+02	-3.499778844395996E+01
2.612612612612629E+02	-3.467048451075698E+01
2.622622622622639E+02	-3.434402118939397E+01
2.632632632632649E+02	-3.401841341283216E+01
2.642642642642659E+02	-3.369260831424526E+01
2.652652652652669E+02	-3.336875459146768E+01
2.662662662662678E+02	-3.304580057467228E+01
2.672672672672688E+02	-3.272268973930522E+01
2.682682682682698E+02	-3.240157704936155E+01
2.692692692692708E+02	-3.208033416758417E+01
2.702702702702718E+02	-3.176004623294648E+01
2.712712712712728E+02	-3.144180145843620E+01
2.722722722722738E+02	-3.112346584597071E+01
2.732732732732748E+02	-3.080612680029253E+01
2.742742742742757E+02	-3.048979794867500E+01
2.752752752752767E+02	-3.017557075233981E+01
2.762762762762777E+02	-2.986130341316812E+01
2.772772772772787E+02	-2.954808643635306E+01
2.782782782782797E+02	-2.923593294501552E+01
2.792792792792807E+02	-2.892485592948015E+01
2.802802802802817E+02	-2.861486824436179E+01
2.812812812812826E+02	-2.830598260561328E+01
2.822822822822836E+02	-2.799712802588101E+01
2.832832832832846E+02	-2.769048317945862E+01
2.842842842842856E+02	-2.738497765104148E+01
2.852852852852866E+02	-2.708062357363906E+01
2.862862862862876E+02	-2.677634684299164E+01
2.872872872872886E+02	-2.647433052151246E+01
2.882882882882896E+02	-2.617350110721736E+01
2.892892892892905E+02	-2.587278228685818E+01
2.902902902902915E+02	-2.557436007802562E+01
2.912912912912925E+02	-2.527607013763463E+01
2.922922922922935E+02	-2.498009978332993E+01
2.932932932932945E+02	-2.468428268368871E+01
2.942942942942955E+02	-2.439080745715728E+01
2.952952952952965E+02	-2.409750577178056E+01
2.962962962962974E+02	-2.380547737777351E+01
2.972972972972984E+02	-2.351582237825323E+01
2.982982982982994E+02	-2.322637054908046E+01
2.992992992993004E+02	-2.293822175944206E+01
3.003003003003014E+02	-2.265138554658506E+01
3.013013013013024E+02	-2.236587125142842E+01
3.023023023023034E+02	-2.208168801494048E+01
3.033033033033043E+02	-2.179993468664270E+01
3.043043043043053E+02	-2.151843991402075E+01
3.053053053053063E+02	-2.123830236167123E+01
3.063063063063073E+02	-2.095953033158503E+01
3.073073073073083E+02	-2.068213190703591E+01
3.083083083083093E+02	-2.040611494868972E+01
3.093093093093103E+02	-2.013039914511637E+01
3.103103103103113E+02	-1.985716823164239E+01
3.113113113113122E+02	-1.958534102935118E+01
3.123123123123132E+02	-1.931492447084656E+01
3.133133133133142E+02	-1.904592524588770E+01
3.143143143143152E+02	-1.877834979718045E+01
3.153153153153162E+02	-1.851112069119336E+01
3.163163163163172E+02	-1.824641181904326E+01
3.173173173173182E+02	-1.798314457844663E+01
3.183183183183191E+02	-1.772024409028154E+01
3.193193193193201E+02	-1.745987695533267E+01
3.203203203203211E+02	-1.720096694098947E+01
3.213213213213221E+02	-1.694244220035989E+01
3.223223223223231E+02	-1.668646098867794E+01
3.233233233233241E+02	-1.643194989691165E+01
3.243243243243251E+02	-1.617784065631668E+01
3.253253253253260E+02	-1.592628198028251E+01
3.263263263263270E+02	-1.567513547530461E+01
3.273273273273280E+02	-1.542654205455801E+01
3.283283283283290E+02	-1.517837022031290E+01
3.293293293293300E+02	-1.493275244402321E+01
3.303303303303310E+02	-1.468756474630345E+01
3.313313313313320E+02	-1.444493046944581E+01
3.323323323323330E+02	-1.420273382003643E+01
3.333333333333339E+02	-1.396308827672419E+01
3.343343343343349E+02	-1.372388694577830E+01
3.353353353353359E+02	-1.348723265950684E+01
3.363363363363369E+02	-1.325102818478945E+01
3.373373373373379E+02	-1.301736487542985E+01
3.383383383383389E+02	-1.278415596821469E+01
3.393393393393399E+02	-1.255244528324238E+01
3.403403403403408E+02	-1.232326290293349E+01
3.413413413413418E+02	-1.209454045870962E+01
3.423423423423428E+02	-1.186833556987949E+01
3.433433433433438E+02	-1.164259258256243E+01
3.443443443443448E+02	-1.141833718500584E+01
3.453453453453458E+02	-1.119657881468083E+01
3.463463463463468E+02	-1.097528382886003E+01
3.473473473473477E+02	-1.075646974871142E+01
3.483483483483487E+02	-1.053811822272019E+01
3.493493493493497E+02	-1.032222917959189E+01
3.503503503503507E+02	-1.010680068659758E+01
3.513513513513517E+02	-9.892827592383583E+00
3.523523523523527E+02	-9.681284373932158E+00
3.533533533533537E+02	-9.470197046434350E+00
3.543543543543547E+02	-9.261515011815391E+00
3.553553553553556E+02	-9.053283784893665E+00
3.563563563563566E+02	-8.847430628691200E+00
3.573573573573576E+02	-8.642021897109771E+00
3.583583583583586E+02	-8.438961268549519E+00
3.593593593593596E+02	-8.236337340189493E+00
3.603603603603606E+02	-8.036028690405601E+00
3.613613613613616E+02	-7.837076445245202E+00
3.623623623623625E+02	-7.638546051807680E+00
3.633633633633635E+02	-7.442276530362960E+00
3.643643643643645E+02	-7.247325914958310E+00
3.653653653653655E+02	-7.052778999687689E+00
3.663663663663665E+02	-6.860431432481619E+00
3.673673673673675E+02	-6.669359885796439E+00
3.683683683683685E+02	-6.479548733406773E+00
3.693693693693695E+02	-6.290981697115512E+00
3.703703703703704E+02	-6.103641833078655E+00
3.713713713713714E+02	-5.916657332229533E+00
3.723723723723724E+02	-5.731726794806491E+00
3.733733733733734E+02	-5.547968719097298E+00
3.743743743743744E+02	-5.366191121415795E+00
3.753753753753754E+02	-5.184708648414926E+00
3.763763763763764E+02	-5.004336881163454E+00
3.773773773773773E+02	-4.825053792738800E+00
3.783783783783783E+02	-4.646836562819317E+00
3.793793793793793E+02	-4.470440950705324E+00
3.803803803803803E+02	-4.294272929959789E+00
3.813813813813813E+02	-4.119855731065400E+00
3.823823823823823E+02	-3.945634391673593E+00
3.833833833833833E+02	-3.773088313410426E+00
3.843843843843842E+02	-3.600703968296330E+00
3.853853853853852E+02	-3.429914319425279E+00
3.863863863863862E+02	-3.259951687229204E+00
3.873873873873872E+02	-3.090784099589200E+00
3.883883883883882E+02	-2.922378530484366E+00
3.893893893893892E+02	-2.754700869840690E+00
3.903903903903902E+02	-2.587715891843345E+00
3.913913913913912E+02	-2.421387221570512E+00
3.923923923923921E+02	-2.256303723706878E+00
3.933933933933931E+02	-2.091159658917604E+00
3.943943943943941E+02	-1.927154145987060E+00
3.953953953953951E+02	-1.763618195278013E+00
3.963963963963961E+02	-1.600507853829185E+00
3.973973973973971E+02	-1.437777732689938E+00
3.983983983983981E+02	-1.275380954898083E+00
3.993993993993990E+02	-1.113269099963418E+00
4.004004004004000E+02	-9.513921444759035E-01
4.014014014014010E+02	-7.901939254543322E-01
4.024024024024020E+02	-6.290932187807812E-01
4.034034034034030E+02	-4.680333363307909E-01
4.044044044044040E+02	-3.069556454488520E-01
4.054054054054050E+02	-1.457994789029726E-01
4.064064064064059E+02	1.549796312701801E-02
4.074074074074069E+02	1.766051847512244E-01
4.084084084084079E+02	3.380218577244705E-01
4.094094094094089E+02	4.998195404964463E-01
4.104104104104099E+02	6.620724963609064E-01
4.114114114114109E+02	8.245320385940431E-01
4.124124124124119E+02	9.876417236546331E-01
4.134134134134129E+02	1.151486849884805E+00
4.144144144144138E+02	1.316156311047507E+00
4.154154154154148E+02	1.481491571378228E+00
4.164164164164158E+02	1.647880642758992E+00
4.174174174174168E+02	1.815213284364290E+00
4.184184184184178E+02	1.983851604471511E+00
4.194194194194188E+02	2.153912235322878E+00
4.204204204204198E+02	2.325362020641933E+00
4.214214214214207E+02	2.498528580020320E+00
4.224224224224217E+02	2.673435413307743E+00
4.234234234234227E+02	2.850392572585861E+00
4.244244244244237E+02	3.029405529620362E+00
4.254254254254247E+02	3.210894191338411E+00
4.264264264264257E+02	3.395017988140353E+00
4.274274274274267E+02	3.582062619563658E+00
4.284284284284277E+02	3.772352834136200E+00
4.294294294294286E+02	3.966277119369806E+00
4.304304304304296E+02	4.164482185368797E+00
4.314314314314306E+02	4.367654454960757E+00
4.324324324324316E+02	4.575876906191752E+00
4.334334334334326E+02	4.789163403601833E+00
4.344344344344336E+02	5.007527762932114E+00
4.354354354354346E+02	5.230983751260737E+00
4.364364364364355E+02	5.459545087148399E+00
4.374374374374365E+02	5.693225440777496E+00
4.384384384384375E+02	5.932038434094466E+00
4.394394394394385E+02	6.175997640950300E+00
4.404404404404395E+02	6.425116587245157E+00
4.414414414414405E+02	6.679408751066603E+00
4.424424424424415E+02	6.938887562832861E+00
4.434434434434424E+02	7.203566405440142E+00
