# chemical potential (MeV), pressure (MeV/fm^{3})
9.394140538784525E+02	8.396561042900430E-05
9.393708755721987E+02	2.186470641163396E-05
9.392665302888364E+02	-1.893296001753697E-04
9.391253874253861E+02	-5.673173272953136E-04
9.389592088131287E+02	-1.122350091122826E-03
9.387748010597173E+02	-1.860762140495353E-03
9.385765451668414E+02	-2.786509851489427E-03
9.383674676264297E+02	-3.901972432799994E-03
9.381497676183849E+02	-5.208419411928844E-03
9.379251054665351E+02	-6.706302581733325E-03
9.376947724362054E+02	-8.395452444005969E-03
9.374597970611474E+02	-1.027521418495780E-02
9.372210148185334E+02	-1.234454607009638E-02
9.369791158444065E+02	-1.460208983723987E-02
9.367346776348409E+02	-1.704623178943621E-02
9.364881897408526E+02	-1.967514031173323E-02
9.362400712820425E+02	-2.248680205690334E-02
9.359906842339258E+02	-2.547905056127320E-02
9.357403438371166E+02	-2.864958690736330E-02
9.354893265496311E+02	-3.199599846840329E-02
9.352378763070300E+02	-3.551577465759692E-02
9.349862096811472E+02	-3.920631818493803E-02
9.347345197197277E+02	-4.306495911714592E-02
9.344829796373496E+02	-4.708895858874484E-02
9.342317451390570E+02	-5.127552294754878E-02
9.339809567953641E+02	-5.562180953052120E-02
9.337307423885309E+02	-6.012492449224283E-02
9.334812178363858E+02	-6.478193983605252E-02
9.332324889926102E+02	-6.958989025633855E-02
9.329846524702199E+02	-7.454578348483665E-02
9.327377971608777E+02	-7.964659364864701E-02
9.324920045826459E+02	-8.488927425810289E-02
9.322473498018401E+02	-9.027075768148052E-02
9.320039020856183E+02	-9.578795761382253E-02
9.317617254726141E+02	-1.014377712016312E-01
9.315208792739089E+02	-1.072170809663930E-01
9.312814186004083E+02	-1.131227543070281E-01
9.310433944096588E+02	-1.191516536925405E-01
9.308068542819327E+02	-1.253006274064319E-01
9.305718423851090E+02	-1.315665195603515E-01
9.303383999218930E+02	-1.379461670431397E-01
9.301065655478599E+02	-1.444363955789640E-01
9.298763749925355E+02	-1.510340374137513E-01
9.296478619449015E+02	-1.577359132703577E-01
9.294210578044997E+02	-1.645388451381109E-01
9.291959920156330E+02	-1.714396521165327E-01
9.289726921292342E+02	-1.784351537931457E-01
9.287511840225283E+02	-1.855221681350372E-01
9.285314918499317E+02	-1.926975177090640E-01
9.283136383255759E+02	-1.999580247283461E-01
9.280976449104365E+02	-2.073005086182320E-01
9.278835315634815E+02	-2.147217978487106E-01
9.276713170837020E+02	-2.222187220781962E-01
9.274610191031221E+02	-2.297881152733225E-01
9.272526542444404E+02	-2.374268132423367E-01
9.270462381021706E+02	-2.451316568422044E-01
9.268417853041467E+02	-2.528994925247616E-01
9.266393095683505E+02	-2.607271725986493E-01
9.264388238407676E+02	-2.686115523951003E-01
9.262403402587910E+02	-2.765494935696893E-01
9.260438700900477E+02	-2.845378689812605E-01
9.258494240300246E+02	-2.925735525295181E-01
9.256570121132950E+02	-3.006534245354260E-01
9.254666436223105E+02	-3.087743772681506E-01
9.252783273554476E+02	-3.169333054792673E-01
9.250920714884836E+02	-3.251271136774108E-01
9.249078836893038E+02	-3.333527127001048E-01
9.247257710606186E+02	-3.416070236817177E-01
9.245457402933879E+02	-3.498869724949714E-01
9.243677975636828E+02	-3.581894956088831E-01
9.241919485980420E+02	-3.665115384600881E-01
9.240181987373298E+02	-3.748500535472203E-01
9.238465529144219E+02	-3.832020024949543E-01
9.236770156731830E+02	-3.915643562990567E-01
9.235095911863186E+02	-3.999340954139257E-01
9.233442832722037E+02	-4.083082099012927E-01
9.231810954954174E+02	-4.166836951724235E-01
9.230200310122989E+02	-4.250575607623546E-01
9.228610926698486E+02	-4.334268261767420E-01
9.227042831036802E+02	-4.417885165495363E-01
9.225496045814107E+02	-4.501396715239707E-01
9.223970591838284E+02	-4.584773364980492E-01
9.222466487315859E+02	-4.667985670617441E-01
9.220983747114932E+02	-4.751004338371558E-01
9.219522384557143E+02	-4.833800132901729E-01
9.218082410668845E+02	-4.916343923257500E-01
9.216663833851281E+02	-4.998606708945772E-01
9.215266660811820E+02	-5.080559571811136E-01
9.213890896224804E+02	-5.162173701428401E-01
9.212536542389065E+02	-5.243420420157463E-01
9.211203600988449E+02	-5.324271082614587E-01
9.209892069793274E+02	-5.404697280742994E-01
9.208601947361427E+02	-5.484670561996836E-01
9.207333228471348E+02	-5.564162713110363E-01
9.206085907552073E+02	-5.643145553665363E-01
9.204859977058683E+02	-5.721591040622798E-01
9.203655427949836E+02	-5.799471242975187E-01
9.202472249741709E+02	-5.876758341996720E-01
9.201310430979462E+02	-5.953424603487747E-01
9.200169958026846E+02	-6.029442462310044E-01
9.199050817212581E+02	-6.104784382638400E-01
9.197952992356876E+02	-6.179423026020459E-01
9.196876466494107E+02	-6.253331141033414E-01
9.195821221913393E+02	-6.326481561569608E-01
9.194787239359764E+02	-6.398847264941878E-01
9.193774498910590E+02	-6.470401314414858E-01
9.192782978755492E+02	-6.541116947331602E-01
9.191812656906759E+02	-6.610967457596644E-01
9.190863509976631E+02	-6.679926284681414E-01
9.189935513628604E+02	-6.747966984841014E-01
9.189028643026265E+02	-6.815063199378528E-01
9.188142871609216E+02	-6.881188748253635E-01
9.187278172793730E+02	-6.946317506470905E-01
9.186434518746430E+02	-7.010423496865315E-01
9.185611880828923E+02	-7.073480859567098E-01
9.184810230040546E+02	-7.135463820065979E-01
9.184029535374435E+02	-7.196346818582811E-01
9.183269766344175E+02	-7.256104316020355E-01
9.182530891337959E+02	-7.314710923817529E-01
9.181812878057767E+02	-7.372141371361067E-01
9.181115693540648E+02	-7.428370506189594E-01
9.180439303763117E+02	-7.483373328209382E-01
9.179783674493524E+02	-7.537124922139355E-01
9.179148770894628E+02	-7.589600491332931E-01
9.178534557542077E+02	-7.640775358043470E-01
9.177940998026545E+02	-7.690624997443933E-01
9.177368055387234E+02	-7.739125004678158E-01
9.176815692543441E+02	-7.786251059087590E-01
9.176283871894830E+02	-7.831978958257650E-01
9.175772554922345E+02	-7.876284655112613E-01
9.175281702203937E+02	-7.919144258258939E-01
9.174811274673198E+02	-7.960533924183437E-01
9.174361232803155E+02	-8.000429927682262E-01
9.173931535791966E+02	-8.038808736982901E-01
9.173522142819191E+02	-8.075646903146207E-01
9.173133012644208E+02	-8.110921097256778E-01
9.172764103204931E+02	-8.144608147987356E-01
9.172415372870780E+02	-8.176684928345139E-01
9.172086779212924E+02	-8.207128468166047E-01
9.171778278190476E+02	-8.235916032905379E-01
9.171489827466675E+02	-8.263024815965991E-01
9.171221382288491E+02	-8.288432323944335E-01
9.170972899626217E+02	-8.312115988846926E-01
9.170744334055879E+02	-8.334053558348842E-01
9.170535640658254E+02	-8.354222822295014E-01
9.170346774614611E+02	-8.372601650509068E-01
9.170177690391422E+02	-8.389168072434359E-01
9.170028341750109E+02	-8.403900278263450E-01
9.169898682167901E+02	-8.416776578692406E-01
9.169788665668869E+02	-8.427775322970774E-01
9.169698245185965E+02	-8.436875061920546E-01
9.169627372981571E+02	-8.444054508497629E-01
9.169576002299083E+02	-8.449292371191177E-01
9.169544084904439E+02	-8.452567603372927E-01
9.169531572737600E+02	-8.453859237126835E-01
9.169538417508603E+02	-8.453146424603233E-01
9.169564570294381E+02	-8.450408480437090E-01
9.169609982776087E+02	-8.445624753921948E-01
9.169674605605144E+02	-8.438774799645330E-01
9.169758389230423E+02	-8.429838292630620E-01
9.169861283904544E+02	-8.418795028198929E-01
9.169983239689899E+02	-8.405624921597337E-01
9.170124206873531E+02	-8.390307963389887E-01
9.170284134745918E+02	-8.372824352683210E-01
9.170462972425437E+02	-8.353154408892465E-01
9.170660669680628E+02	-8.331278481201707E-01
9.170877175301101E+02	-8.307177128122021E-01
9.171112437512555E+02	-8.280831073774380E-01
9.171366405614104E+02	-8.252221024947630E-01
9.171639027534807E+02	-8.221327944887662E-01
9.171930251063696E+02	-8.188132917391613E-01
9.172240025076104E+02	-8.152617005396223E-01
9.172568296279428E+02	-8.114761624767652E-01
9.172915012883834E+02	-8.074548123087766E-01
9.173280121756525E+02	-8.031958108545041E-01
9.173663570461267E+02	-7.986973213857027E-01
9.174065306041838E+02	-7.939575237581948E-01
9.174485275433420E+02	-7.889746097338275E-01
9.174923424654723E+02	-7.837467926124759E-01
9.175379700842619E+02	-7.782722830803550E-01
9.175854050225546E+02	-7.725493133382315E-01
9.176346418939916E+02	-7.665761274591887E-01
9.176856752628776E+02	-7.603509863179170E-01
9.177384997661379E+02	-7.538721527632788E-01
9.177931099515745E+02	-7.471379113317198E-01
9.178495003593318E+02	-7.401465584274547E-01
9.179076656031272E+02	-7.328963921909804E-01
9.179676001278812E+02	-7.253857426851482E-01
9.180292984932378E+02	-7.176129366399095E-01
9.180927552120869E+02	-7.095763175773300E-01
9.181579647106171E+02	-7.012742510295311E-01
9.182249215305412E+02	-6.927050989029908E-01
9.182936200871827E+02	-6.838672502678946E-01
9.183640548715820E+02	-6.747590955642409E-01
9.184362202894761E+02	-6.653790473338859E-01
9.185101107825835E+02	-6.557255246253249E-01
9.185857207483000E+02	-6.457969634045639E-01
9.186630445803121E+02	-6.355918113385997E-01
9.187420767090839E+02	-6.251085224246253E-01
9.188228114814807E+02	-6.143455729331890E-01
9.189052432817323E+02	-6.033014454449130E-01
9.189893664513088E+02	-5.919746395084076E-01
9.190751753294210E+02	-5.803636663295606E-01
9.191626642532641E+02	-5.684670486875234E-01
9.192518275983632E+02	-5.562833154281179E-01
9.193426596184820E+02	-5.438110233940279E-01
9.194351546463691E+02	-5.310487300067166E-01
9.195293069737440E+02	-5.179950097000301E-01
9.196251108916465E+02	-5.046484484391840E-01
9.197225606506811E+02	-4.910076492579947E-01
9.198216505812395E+02	-4.770712154419812E-01
9.199223748938371E+02	-4.628377785795692E-01
9.200247278393093E+02	-4.483059761004142E-01
9.201287036690521E+02	-4.334744568664064E-01
9.202342965953527E+02	-4.183418868287845E-01
9.203415008714354E+02	-4.029069376188659E-01
9.204503107517382E+02	-3.871682921732145E-01
9.205607203328615E+02	-3.711246678665816E-01
9.206727239123468E+02	-3.547747645492336E-01
9.207863156701840E+02	-3.381173106971573E-01
9.209014897885764E+02	-3.211510460866975E-01
9.210182403726969E+02	-3.038747335680796E-01
9.211365616893539E+02	-2.862871237388163E-01
9.212564478889476E+02	-2.683869960141578E-01
9.213778930456543E+02	-2.501731529673634E-01
9.215008913957123E+02	-2.316443846063976E-01
9.216254370598201E+02	-2.127995099308464E-01
9.217515241624565E+02	-1.936373591341294E-01
9.218791468716472E+02	-1.741567674901034E-01
9.220082992408176E+02	-1.543565995291942E-01
9.221389754069860E+02	-1.342357188094638E-01
9.222711695117077E+02	-1.137929999015341E-01
9.224048756617533E+02	-9.302733446531875E-02
9.225400878899372E+02	-7.193763752161431E-02
9.226768003922208E+02	-5.052281043731455E-02
9.228150071331595E+02	-2.878180261404850E-02
9.229547023196311E+02	-6.713537218388410E-03
9.230958799277224E+02	1.568301438550179E-02
9.232385340578483E+02	3.840888856171887E-02
9.233826587772157E+02	6.146510459359433E-02
9.235282481594367E+02	8.485267093192306E-02
9.236752962454016E+02	1.085725788931313E-01
9.238237970828391E+02	1.326258089784460E-01
9.239737447264803E+02	1.570133309376160E-01
9.241251331990043E+02	1.817360973889208E-01
9.242779564913135E+02	2.067950437774471E-01
9.244322087195649E+02	2.321911141611963E-01
9.245878838900127E+02	2.579252226909716E-01
9.247449759386543E+02	2.839982598407005E-01
9.249034789663395E+02	3.104111314195279E-01
9.250633869648028E+02	3.371647132161684E-01
9.252246939343917E+02	3.642598704470856E-01
9.253873938451832E+02	3.916974512022762E-01
9.255514807543398E+02	4.194783062766874E-01
9.257169485720121E+02	4.476032495950903E-01
9.258837913738296E+02	4.760731111198879E-01
9.260520031278757E+02	5.048886905731251E-01
9.262215777730669E+02	5.340507705997197E-01
9.263925092972637E+02	5.635601301462998E-01
9.265647916984267E+02	5.934175378899340E-01
9.267384189458967E+02	6.236237455598257E-01
9.269133849806901E+02	6.541794878507972E-01
9.270896837934005E+02	6.850854960442803E-01
9.272673093078624E+02	7.163424776501301E-01
9.274462554978595E+02	7.479511368491103E-01
9.276265163096675E+02	7.799121608984478E-01
9.278080857397902E+02	8.122262338913515E-01
9.279909576414789E+02	8.448940023365594E-01
9.281751260348077E+02	8.779161303276624E-01
9.283605848357580E+02	9.112932513151009E-01
9.285473279340190E+02	9.450259817887741E-01
9.287353493476702E+02	9.791149493216835E-01
9.289246429529270E+02	1.013560743711082E+00
9.291152026775524E+02	1.048363951921658E+00
9.293070224623777E+02	1.083525151162405E+00
9.295000962229461E+02	1.119044901884877E+00
9.296944178497984E+02	1.154923747744249E+00
9.298899812856730E+02	1.191162229853035E+00
9.300867804486747E+02	1.227760872641511E+00
9.302848092325638E+02	1.264720183825432E+00
9.304840615838034E+02	1.302040668795485E+00
9.306845313481633E+02	1.339722801899541E+00
9.308862124629286E+02	1.377767062435623E+00
9.310890988035717E+02	1.416173905880100E+00
9.312931842990233E+02	1.454943785622845E+00
9.314984628169306E+02	1.494077131226788E+00
9.317049282787775E+02	1.533574370290864E+00
9.319125745452891E+02	1.573435906605312E+00
9.321213955314131E+02	1.613662142120063E+00
9.323313850918763E+02	1.654253454970501E+00
9.325425371741399E+02	1.695210229010911E+00
9.327548455515575E+02	1.736532802077988E+00
9.329683042050015E+02	1.778221540106870E+00
9.331829069798962E+02	1.820276770442547E+00
9.333986477390013E+02	1.862698811547716E+00
9.336155203626056E+02	1.905487973045695E+00
9.338335187486862E+02	1.948644555848148E+00
9.340526366992186E+02	1.992168829580123E+00
9.342728681862461E+02	2.036061085373660E+00
9.344942069725013E+02	2.080321560451807E+00
9.347166469532506E+02	2.124950506143136E+00
9.349401820425400E+02	2.169948165359074E+00
9.351648060598881E+02	2.215314749757113E+00
9.353905128820445E+02	2.261050470246232E+00
9.356172963297497E+02	2.307155514058365E+00
9.358451502813830E+02	2.353630067854397E+00
9.360740686353170E+02	2.400474310148638E+00
9.363040451593206E+02	2.447688380433476E+00
9.365350737926024E+02	2.495272441051384E+00
9.367671483067204E+02	2.543226607577481E+00
9.370002626073189E+02	2.591551010933586E+00
9.372344105460058E+02	2.640245758621518E+00
9.374695859207986E+02	2.689310934668242E+00
9.377057826267160E+02	2.738746630993205E+00
9.379429944681834E+02	2.788552908284146E+00
9.381812153095287E+02	2.838729827465386E+00
9.384204390001546E+02	2.889277434039855E+00
9.386606593374511E+02	2.940195750170062E+00
9.389018702168308E+02	2.991484806476592E+00
9.391440654448386E+02	3.043144602414543E+00
9.393872388517757E+02	3.095175130125199E+00
9.396313843292131E+02	3.147576382577313E+00
9.398764956063615E+02	3.200348305563580E+00
9.401225666235222E+02	3.253490877912327E+00
9.403695911593311E+02	3.307004031345116E+00
9.406175630548623E+02	3.360887698682177E+00
9.408664761393593E+02	3.415141797852129E+00
9.411163242305831E+02	3.469766231944106E+00
9.413671012094062E+02	3.524760905520566E+00
9.416188008344618E+02	3.580125684020743E+00
9.418714169652658E+02	3.635860442649630E+00
9.421249434140457E+02	3.691965033878091E+00
9.423793740572521E+02	3.748439312060327E+00
9.426347026507876E+02	3.805283092471029E+00
9.428909230893933E+02	3.862496208901860E+00
9.431480291111657E+02	3.920078447838932E+00
9.434060146304384E+02	3.978029622851977E+00
9.436648733689260E+02	4.036349491923772E+00
9.439245992618762E+02	4.095037848752099E+00
9.441851860160648E+02	4.154094423121137E+00
9.444466275522257E+02	4.213518980870219E+00
9.447089176004949E+02	4.273311232218077E+00
9.449720500685773E+02	4.333470915455962E+00
9.452360187113356E+02	4.393997721653818E+00
9.455008173516583E+02	4.454891345014630E+00
9.457664398073341E+02	4.516151466214183E+00
9.460328799280437E+02	4.577777760955712E+00
9.463001315225117E+02	4.639769883154088E+00
9.465681883590767E+02	4.702127464923763E+00
9.468370443122260E+02	4.764850150692212E+00
9.471066931802548E+02	4.827937554821858E+00
9.473771287588520E+02	4.891389278657641E+00
9.476483448779413E+02	4.955204919180119E+00
9.479203353292066E+02	5.019384052017074E+00
9.481930939393687E+02	5.083926248665932E+00
9.484666145341587E+02	5.148831068051152E+00
9.487408909024834E+02	5.214098047989125E+00
9.490159169057674E+02	5.279726731184837E+00
9.492916862970173E+02	5.345716622125394E+00
9.495681929026651E+02	5.412067230402783E+00
9.498454305865545E+02	5.478778062296726E+00
9.501233930696549E+02	5.545848577325330E+00
9.504020742559503E+02	5.613278266730902E+00
9.506814678715533E+02	5.681066566420213E+00
9.509615677902011E+02	5.749212935652793E+00
9.512423677811432E+02	5.817716795965225E+00
9.515238616899178E+02	5.886577575081219E+00
9.518060433307219E+02	5.955794680760448E+00
9.520889064511903E+02	6.025367491981683E+00
9.523724449483750E+02	6.095295412091900E+00
9.526566525461399E+02	6.165577789407791E+00
9.529415231186565E+02	6.236213996951278E+00
9.532270504756773E+02	6.307203379502653E+00
9.535132283991129E+02	6.378545262514592E+00
9.538000506794187E+02	6.450238961125876E+00
9.540875111517875E+02	6.522283789272080E+00
9.543756036608893E+02	6.594679050956870E+00
9.546643219546120E+02	6.667424013493132E+00
9.549536598629315E+02	6.740517952406606E+00
9.552436112270661E+02	6.813960133751152E+00
9.555341698290390E+02	6.887749796233152E+00
9.558253294989620E+02	6.961886178370776E+00
9.561170840091575E+02	7.036368491576923E+00
9.564094271812438E+02	7.111195947429394E+00
9.567023528511909E+02	7.186367748839416E+00
9.569958548345760E+02	7.261883081164967E+00
9.572899268920712E+02	7.337741103205190E+00
9.575845628713880E+02	7.413940983801524E+00
9.578797566018898E+02	7.490481874748014E+00
9.581755018601887E+02	7.567362901780427E+00
9.584717924414116E+02	7.644583183000634E+00
9.587686221949388E+02	7.722141838286007E+00
9.590659849196259E+02	7.800037961987869E+00
9.593638744348825E+02	7.878270641453071E+00
9.596622845463114E+02	7.956838948030850E+00
9.599612090815065E+02	8.035741946500252E+00
9.602606417859211E+02	8.114978667532114E+00
9.605605765683486E+02	8.194548172646364E+00
9.608610071871351E+02	8.274449471172773E+00
9.611619274607125E+02	8.354681575965742E+00
9.614633311985317E+02	8.435243485125454E+00
9.617652122367028E+02	8.516134191514141E+00
9.620675643692698E+02	8.597352664371215E+00
9.623703814186512E+02	8.678897868166189E+00
9.626736571670854E+02	8.760768744158270E+00
9.629773854961513E+02	8.842964248069620E+00
9.632815601797420E+02	8.925483294179514E+00
9.635861750236777E+02	9.008324792985036E+00
9.638912238664702E+02	9.091487651510249E+00
9.641967005111845E+02	9.174970754781555E+00
9.645025987954341E+02	9.258772984890811E+00
9.648089125234128E+02	9.342893202437892E+00
9.651156355014145E+02	9.427330256203732E+00
9.654227615731404E+02	9.512082992909541E+00
9.657302845177346E+02	9.597150229102738E+00
9.660381981880835E+02	9.682530789337591E+00
9.663464964089128E+02	9.768223478065067E+00
9.666551729780365E+02	9.854227079879422E+00
9.669642217017124E+02	9.940540369318626E+00
9.672736364297771E+02	1.002716212074802E+01
9.675834109884906E+02	1.011409108962164E+01
9.678935391818259E+02	1.020132601277834E+01
9.682040148267245E+02	1.028886561831598E+01
9.685148317542230E+02	1.037670862595036E+01
9.688259837767184E+02	1.046485373778660E+01
9.691374647569775E+02	1.055329965786115E+01
9.694492684739560E+02	1.064204505408890E+01
9.697613887595636E+02	1.073108859703444E+01
9.700738194659477E+02	1.082042895072829E+01
9.703865543657248E+02	1.091006474410102E+01
9.706995873555232E+02	1.099999462927008E+01
9.710129122215745E+02	1.109021721436221E+01
9.713265227759272E+02	1.118073110251561E+01
9.716404128912171E+02	1.127153490202829E+01
9.719545763679328E+02	1.136262718803619E+01
9.722690070365818E+02	1.145400653198772E+01
9.725836987256355E+02	1.154567149240893E+01
9.728986452630866E+02	1.163762061533726E+01
9.732138404780076E+02	1.172985243478740E+01
9.735292782021435E+02	1.182236547321503E+01
9.738449523047062E+02	1.191515825176907E+01
9.741608565611814E+02	1.200822925171929E+01
9.744769848211589E+02	1.210157696375677E+01
9.747933309434402E+02	1.219519986901031E+01
9.751098887316768E+02	1.228909641997302E+01
9.754266520354502E+02	1.238326507039397E+01
9.757436147188433E+02	1.247770426606047E+01
9.760607705635390E+02	1.257241241587047E+01
