# barionic density, chemical potential 
1.025275275275275E-02	3.222713291287947E+02
1.050550550550551E-02	3.223796625023410E+02
1.075825825825826E-02	3.224858172802237E+02
1.101101101101101E-02	3.225898656905154E+02
1.126376376376376E-02	3.228643040949734E+02
1.151651651651652E-02	3.229641840256858E+02
1.176926926926927E-02	3.230621532732677E+02
1.202202202202202E-02	3.231582701630983E+02
1.227477477477477E-02	3.232525901526049E+02
1.252752752752753E-02	3.233451660278582E+02
1.278028028028028E-02	3.234360480830209E+02
1.303303303303303E-02	3.235252842844528E+02
1.328578578578579E-02	3.236129204210537E+02
1.353853853853854E-02	3.236990002422397E+02
1.379129129129129E-02	3.237835655847787E+02
1.404404404404404E-02	3.238666564895731E+02
1.429679679679680E-02	3.241189330466734E+02
1.454954954954955E-02	3.241990428913679E+02
1.480230230230230E-02	3.242777894708443E+02
1.505505505505505E-02	3.243552066206609E+02
1.530780780780781E-02	3.244313268446222E+02
1.556056056056056E-02	3.245061813880901E+02
1.581331331331331E-02	3.245798003061410E+02
1.606606606606607E-02	3.246522125270097E+02
1.631881881881882E-02	3.247234459112125E+02
1.657157157157158E-02	3.247935273067069E+02
1.682432432432433E-02	3.248624826004099E+02
1.707707707707708E-02	3.249303367663658E+02
1.732982982982984E-02	3.251660511223662E+02
1.758258258258259E-02	3.252316372985742E+02
1.783533533533535E-02	3.252961928188107E+02
1.808808808808810E-02	3.253597394161295E+02
1.834084084084086E-02	3.254222981101605E+02
1.859359359359361E-02	3.254838892399321E+02
1.884634634634636E-02	3.255445324947599E+02
1.909909909909912E-02	3.256042469433424E+02
1.935185185185187E-02	3.256630510611873E+02
1.960460460460463E-02	3.257209627564878E+02
1.985735735735738E-02	3.257779993945519E+02
2.011011011011014E-02	3.260016528126085E+02
2.036286286286289E-02	3.260568581244077E+02
2.061561561561565E-02	3.261112379102294E+02
2.086836836836840E-02	3.261648075733879E+02
2.112112112112115E-02	3.262175820782192E+02
2.137387387387391E-02	3.262695759676380E+02
2.162662662662666E-02	3.263208033797947E+02
2.187937937937942E-02	3.263712780638889E+02
2.213213213213217E-02	3.264210133951908E+02
2.238488488488493E-02	3.264700223893192E+02
2.263763763763768E-02	3.265183177158201E+02
2.289039039039044E-02	3.265659117110887E+02
2.314314314314319E-02	3.267787637286110E+02
2.339589589589594E-02	3.268248647410733E+02
2.364864864864870E-02	3.268702999260468E+02
2.390140140140145E-02	3.269150803981356E+02
2.415415415415421E-02	3.269592169949716E+02
2.440690690690696E-02	3.270027202869123E+02
2.465965965965972E-02	3.270456005863027E+02
2.491241241241247E-02	3.270878679563264E+02
2.516516516516523E-02	3.271295322194657E+02
2.541791791791798E-02	3.271706029655949E+02
2.567067067067073E-02	3.272110895597226E+02
2.592342342342349E-02	3.272510011494048E+02
2.617617617617624E-02	3.272903466718435E+02
2.642892892892900E-02	3.274934907136791E+02
2.668168168168175E-02	3.275316085525415E+02
2.693443443443451E-02	3.275691862393606E+02
2.718718718718726E-02	3.276062319303963E+02
2.743993993994001E-02	3.276427536029842E+02
2.769269269269277E-02	3.276787590610567E+02
2.794544544544552E-02	3.277142559404458E+02
2.819819819819828E-02	3.277492517139775E+02
2.845095095095103E-02	3.277837536963676E+02
2.870370370370379E-02	3.278177690489291E+02
2.895645645645654E-02	3.278513047841000E+02
2.920920920920930E-02	3.278843677697984E+02
2.946196196196205E-02	3.279169647336148E+02
2.971471471471480E-02	3.281119213723391E+02
2.996746746746756E-02	3.281434880390095E+02
3.022022022022031E-02	3.281746083082219E+02
3.047297297297307E-02	3.282052883815371E+02
3.072572572572582E-02	3.282355343390150E+02
3.097847847847858E-02	3.282653521425667E+02
3.123123123123133E-02	3.282947476391878E+02
3.148398398398408E-02	3.283237265640783E+02
3.173673673673683E-02	3.283522945436534E+02
3.198948948948958E-02	3.283804570984502E+02
3.224224224224233E-02	3.284082196459347E+02
3.249499499499509E-02	3.284355875032129E+02
3.274774774774784E-02	3.284625658896512E+02
3.300050050050059E-02	3.286504872930757E+02
3.325325325325334E-02	3.286765871425071E+02
3.350600600600609E-02	3.287023128194214E+02
3.375875875875884E-02	3.287276691739017E+02
3.401151151151159E-02	3.287526609701914E+02
3.426426426426434E-02	3.287772928888371E+02
3.451701701701709E-02	3.288015695287608E+02
3.476976976976984E-02	3.288254954092677E+02
3.502252252252260E-02	3.288490749719898E+02
3.527527527527535E-02	3.288723125827682E+02
3.552802802802810E-02	3.288952125334781E+02
3.578078078078085E-02	3.289177790437951E+02
3.603353353353360E-02	3.289400162629100E+02
3.628628628628635E-02	3.289619282711892E+02
3.653903903903910E-02	3.291432799206675E+02
3.679179179179185E-02	3.291644412992625E+02
3.704454454454460E-02	3.291852894773733E+02
3.729729729729735E-02	3.292058282734991E+02
3.755005005005010E-02	3.292260614449380E+02
3.780280280280286E-02	3.292459926891716E+02
3.805555555555561E-02	3.292656256452092E+02
3.830830830830836E-02	3.292849638948936E+02
3.856106106106111E-02	3.293040109641693E+02
3.881381381381386E-02	3.293227703243142E+02
3.906656656656661E-02	3.293412453931368E+02
3.931931931931936E-02	3.293594395361397E+02
3.957207207207211E-02	3.293773560676499E+02
3.982482482482486E-02	3.293949982519186E+02
4.007757757757761E-02	3.294123693041901E+02
4.033033033033036E-02	3.295875929055450E+02
4.058308308308312E-02	3.296043213502096E+02
4.083583583583587E-02	3.296207881614031E+02
4.108858858858862E-02	3.296369963667281E+02
4.134134134134137E-02	3.296529489497301E+02
4.159409409409412E-02	3.296686488508043E+02
4.184684684684687E-02	3.296840989680780E+02
4.209959959959962E-02	3.296993021582694E+02
4.235235235235237E-02	3.297142612375249E+02
4.260510510510512E-02	3.297289789822338E+02
4.285785785785787E-02	3.297434581298223E+02
4.311061061061063E-02	3.297577013795272E+02
4.336336336336338E-02	3.297717113931496E+02
4.361611611611613E-02	3.297854907957894E+02
4.386886886886888E-02	3.297990421765620E+02
4.412162162162163E-02	3.299688826072998E+02
4.437437437437438E-02	3.299818777519978E+02
4.462712712712713E-02	3.299946525461078E+02
4.487987987987988E-02	3.300072094402262E+02
4.513263263263263E-02	3.300195508523058E+02
4.538538538538538E-02	3.300316791682715E+02
4.563813813813813E-02	3.300435967426211E+02
4.589089089089089E-02	3.300553058990118E+02
4.614364364364364E-02	3.300668089308325E+02
4.639639639639639E-02	3.300781081017623E+02
4.664914914914914E-02	3.300892056463160E+02
4.690190190190189E-02	3.301001037703767E+02
4.715465465465464E-02	3.301108046517155E+02
4.740740740740739E-02	3.301213104404995E+02
4.766016016016014E-02	3.301316232597880E+02
4.791291291291289E-02	3.301417452060168E+02
4.816566566566564E-02	3.301516783494717E+02
4.841841841841839E-02	3.301614247347513E+02
4.867117117117115E-02	3.303256055081357E+02
4.892392392392390E-02	3.303348785246530E+02
4.917667667667665E-02	3.303439708576113E+02
4.942942942942940E-02	3.303528844521888E+02
4.968218218218215E-02	3.303616212300518E+02
4.993493493493490E-02	3.303701830897566E+02
5.018768768768765E-02	3.303785719071452E+02
5.044044044044040E-02	3.303867895357303E+02
5.069319319319315E-02	3.303948378070733E+02
5.094594594594590E-02	3.304027185311528E+02
5.119869869869866E-02	3.304104334967265E+02
5.145145145145141E-02	3.304179844716840E+02
5.170420420420416E-02	3.304253732033930E+02
5.195695695695691E-02	3.304326014190378E+02
5.220970970970966E-02	3.304396708259505E+02
5.246246246246241E-02	3.304465831119349E+02
5.271521521521516E-02	3.304533399455846E+02
5.296796796796791E-02	3.304599429765935E+02
5.322072072072066E-02	3.304663938360599E+02
5.347347347347341E-02	3.306253468552321E+02
5.372622622622616E-02	3.306313939472132E+02
5.397897897897892E-02	3.306372937241256E+02
5.423173173173167E-02	3.306430477447446E+02
5.448448448448442E-02	3.306486575506904E+02
5.473723723723717E-02	3.306541246666966E+02
5.498998998998992E-02	3.306594506008743E+02
5.524274274274267E-02	3.306646368449689E+02
5.549549549549542E-02	3.306696848746137E+02
5.574824824824817E-02	3.306745961495774E+02
5.600100100100092E-02	3.306793721140068E+02
5.625375375375367E-02	3.306840141966652E+02
5.650650650650643E-02	3.306885238111656E+02
5.675925925925918E-02	3.306929023561996E+02
5.701201201201193E-02	3.306971512157617E+02
5.726476476476468E-02	3.307012717593695E+02
5.751751751751743E-02	3.307052653422794E+02
5.777027027027018E-02	3.307091333056981E+02
5.802302302302293E-02	3.307128769769909E+02
5.827577577577568E-02	3.307164976698842E+02
5.852852852852843E-02	3.307199966846665E+02
5.878128128128118E-02	3.307233753083837E+02
5.903403403403393E-02	3.307266348150317E+02
5.928678678678669E-02	3.308800813591299E+02
5.953953953953944E-02	3.308830037006162E+02
5.979229229229219E-02	3.308858107247725E+02
6.004504504504494E-02	3.308885036545840E+02
6.029779779779769E-02	3.308910837009021E+02
6.055055055055044E-02	3.308935520626167E+02
6.080330330330319E-02	3.308959099268249E+02
6.105605605605594E-02	3.308981584689961E+02
6.130880880880869E-02	3.309002988531357E+02
6.156156156156144E-02	3.309023322319434E+02
6.181431431431419E-02	3.309042597469714E+02
6.206706706706695E-02	3.309060825287777E+02
6.231981981981970E-02	3.309078016970777E+02
6.257257257257245E-02	3.309094183608923E+02
6.282532532532521E-02	3.309109336186949E+02
6.307807807807797E-02	3.309123485585534E+02
6.333083083083073E-02	3.309136642582729E+02
6.358358358358349E-02	3.309148817855324E+02
6.383633633633624E-02	3.309160021980221E+02
6.408908908908900E-02	3.309170265435762E+02
6.434184184184176E-02	3.309179558603052E+02
6.459459459459452E-02	3.309187911767240E+02
6.484734734734728E-02	3.309195335118798E+02
6.510010010010003E-02	3.309201838754760E+02
6.535285285285279E-02	3.309207432679954E+02
6.560560560560555E-02	3.309212126808207E+02
6.585835835835831E-02	3.309215930963525E+02
6.611111111111106E-02	3.309218854881267E+02
6.636386386386382E-02	3.309220908209283E+02
6.661661661661658E-02	3.309222100509044E+02
6.686936936936934E-02	3.309590609433069E+02
6.712212212212210E-02	3.310325751989456E+02
6.737487487487485E-02	3.310323658556664E+02
6.762762762762761E-02	3.310320741773069E+02
6.788038038038037E-02	3.310317010780895E+02
6.813313313313313E-02	3.310312474642404E+02
6.838588588588589E-02	3.310307142340896E+02
6.863863863863864E-02	3.310301022781699E+02
6.889139139139140E-02	3.310294124793136E+02
6.914414414414416E-02	3.310286457127483E+02
6.939689689689692E-02	3.310278028461908E+02
6.964964964964968E-02	3.310268847399396E+02
6.990240240240243E-02	3.310258922469658E+02
7.015515515515519E-02	3.310248262130030E+02
7.040790790790795E-02	3.310236874766351E+02
7.066066066066071E-02	3.310224768693832E+02
7.091341341341346E-02	3.310211952157912E+02
7.116616616616622E-02	3.310198433335097E+02
7.141891891891898E-02	3.310184220333787E+02
7.167167167167174E-02	3.310169321195093E+02
7.192442442442450E-02	3.310153743893638E+02
7.217717717717725E-02	3.310137496338349E+02
7.242992992993001E-02	3.310120586373232E+02
7.268268268268277E-02	3.310103021778137E+02
7.293543543543553E-02	3.310809204905182E+02
7.318818818818829E-02	3.310789851923144E+02
7.344094094094104E-02	3.310769867405471E+02
7.369369369369380E-02	3.310749258880900E+02
7.394644644644656E-02	3.310728033817689E+02
7.419919919919932E-02	3.310706199624324E+02
7.445195195195208E-02	3.310683763650192E+02
7.470470470470483E-02	3.310660733186277E+02
7.495745745745759E-02	3.310637115465814E+02
7.521021021021035E-02	3.310612917664957E+02
7.546296296296311E-02	3.310588146903418E+02
7.571571571571586E-02	3.310562810245116E+02
7.596846846846862E-02	3.310536914698799E+02
7.622122122122138E-02	3.310510467218671E+02
7.647397397397414E-02	3.310483474704994E+02
7.672672672672690E-02	3.310455944004702E+02
7.697947947947965E-02	3.310427881911984E+02
7.723223223223241E-02	3.310399295168880E+02
7.748498498498517E-02	3.310370190465848E+02
7.773773773773793E-02	3.310340574442339E+02
7.799049049049069E-02	3.310310453687355E+02
7.824324324324344E-02	3.310279834740002E+02
7.849599599599620E-02	3.310248724090034E+02
7.874874874874896E-02	3.310217128178391E+02
7.900150150150172E-02	3.310185053397730E+02
7.925425425425447E-02	3.310152506092943E+02
7.950700700700723E-02	3.310119492561674E+02
7.975975975975999E-02	3.310086019054827E+02
8.001251251251275E-02	3.310052091777066E+02
8.026526526526551E-02	3.310017716887308E+02
8.051801801801826E-02	3.309982900499209E+02
8.077077077077102E-02	3.309947648681647E+02
8.102352352352378E-02	3.309911967459191E+02
8.127627627627654E-02	3.309875862812571E+02
8.152902902902930E-02	3.309839340679138E+02
8.178178178178205E-02	3.309802406953318E+02
8.203453453453481E-02	3.309765067487060E+02
8.228728728728757E-02	3.309727328090277E+02
8.254004004004033E-02	3.309689194531285E+02
8.279279279279309E-02	3.309650672537228E+02
8.304554554554584E-02	3.309611767794509E+02
8.329829829829860E-02	3.309572485949201E+02
8.355105105105136E-02	3.309532832607470E+02
8.380380380380412E-02	3.309492813335971E+02
8.405655655655687E-02	3.309452433662261E+02
8.430930930930963E-02	3.309411699075189E+02
8.456206206206239E-02	3.309370615025291E+02
8.481481481481515E-02	3.309329186925173E+02
8.506756756756791E-02	3.309287420149897E+02
8.532032032032066E-02	3.309245320037355E+02
8.557307307307342E-02	3.309202891888640E+02
8.582582582582618E-02	3.309160140968415E+02
8.607857857857894E-02	3.309117072505274E+02
8.633133133133170E-02	3.309073691692095E+02
8.658408408408445E-02	3.309030003686402E+02
8.683683683683721E-02	3.308986013610703E+02
8.708958958958997E-02	3.308941726552844E+02
8.734234234234273E-02	3.308897147566339E+02
8.759509509509548E-02	3.308852281670710E+02
8.784784784784824E-02	3.308807133851817E+02
8.810060060060100E-02	3.308761709062184E+02
8.835335335335376E-02	3.308716012221321E+02
8.860610610610652E-02	3.307976604952667E+02
8.885885885885927E-02	3.307930875722867E+02
8.911161161161203E-02	3.307884888965374E+02
8.936436436436479E-02	3.307838649471907E+02
8.961711711711755E-02	3.307792162002715E+02
8.986986986987031E-02	3.307745431286876E+02
9.012262262262306E-02	3.307698462022594E+02
9.037537537537582E-02	3.307651258877485E+02
9.062812812812858E-02	3.307603826488875E+02
9.088088088088134E-02	3.307556169464075E+02
9.113363363363410E-02	3.307508292380667E+02
9.138638638638685E-02	3.307460199786781E+02
9.163913913913961E-02	3.307411896201370E+02
9.189189189189237E-02	3.307363386114479E+02
9.214464464464513E-02	3.307314673987514E+02
9.239739739739788E-02	3.307265764253505E+02
9.265015015015064E-02	3.307216661317370E+02
9.290290290290340E-02	3.307167369556171E+02
9.315565565565616E-02	3.307117893319370E+02
9.340840840840892E-02	3.307068236929080E+02
9.366116116116167E-02	3.307018404680315E+02
9.391391391391443E-02	3.306968400841236E+02
9.416666666666719E-02	3.306235827288241E+02
9.441941941941995E-02	3.306185989621077E+02
9.467217217217271E-02	3.306135992991665E+02
9.492492492492546E-02	3.306085841564080E+02
9.517767767767822E-02	3.306035539476724E+02
9.543043043043098E-02	3.305985090842556E+02
9.568318318318374E-02	3.305934499749316E+02
9.593593593593649E-02	3.305883770259746E+02
9.618868868868925E-02	3.305832906411821E+02
9.644144144144201E-02	3.305781912218955E+02
9.669419419419477E-02	3.305730791670228E+02
9.694694694694753E-02	3.305679548730592E+02
9.719969969970028E-02	3.305628187341088E+02
9.745245245245304E-02	3.305576711419050E+02
9.770520520520580E-02	3.305525124858314E+02
9.795795795795856E-02	3.304798593309790E+02
9.821071071071132E-02	3.304747293747355E+02
9.846346346346407E-02	3.304695895084059E+02
9.871621621621683E-02	3.304644401122581E+02
9.896896896896959E-02	3.304592815643093E+02
9.922172172172235E-02	3.304541142403451E+02
9.947447447447511E-02	3.304489385139385E+02
9.972722722722786E-02	3.304437547564691E+02
9.997997997998062E-02	3.304385633371415E+02
1.002327327327334E-01	3.304333646230037E+02
1.004854854854861E-01	3.304281589789654E+02
1.007382382382389E-01	3.304229467678159E+02
1.009909909909917E-01	3.303508523690658E+02
1.012437437437444E-01	3.303456777922828E+02
1.014964964964972E-01	3.303404977246665E+02
1.017492492492499E-01	3.303353125207753E+02
1.020020020020027E-01	3.303301225331341E+02
1.022547547547554E-01	3.303249281122507E+02
1.025075075075082E-01	3.303197296066328E+02
1.027602602602610E-01	3.303145273628045E+02
1.030130130130137E-01	3.303093217253224E+02
1.032657657657665E-01	3.303041130367918E+02
1.035185185185192E-01	3.302325346111798E+02
1.037712712712720E-01	3.302273705572183E+02
1.040240240240247E-01	3.302222044696300E+02
1.042767767767775E-01	3.302170366834412E+02
1.045295295295303E-01	3.302118675318050E+02
1.047822822822830E-01	3.302066973460154E+02
1.050350350350358E-01	3.302015264555234E+02
1.052877877877885E-01	3.301963551879509E+02
1.055405405405413E-01	3.301911838691058E+02
1.057932932932941E-01	3.301201055200796E+02
1.060460460460468E-01	3.301149848183396E+02
1.062987987987996E-01	3.301098650337437E+02
1.065515515515523E-01	3.301047464850502E+02
1.068043043043051E-01	3.300996294892734E+02
1.070570570570578E-01	3.300945143616980E+02
1.073098098098106E-01	3.300894014158923E+02
1.075625625625634E-01	3.300842909637219E+02
1.078153153153161E-01	3.300136864545094E+02
1.080680680680689E-01	3.300086317034176E+02
1.083208208208216E-01	3.300035803736835E+02
1.085735735735744E-01	3.299985327705525E+02
1.088263263263271E-01	3.299934891976317E+02
1.090790790790799E-01	3.299884499569028E+02
1.093318318318327E-01	3.299834153487349E+02
1.095845845845854E-01	3.299783856718964E+02
1.098373373373382E-01	3.299082752688320E+02
1.100900900900909E-01	3.299033061687165E+02
1.103428428428437E-01	3.298983428894102E+02
1.105955955955965E-01	3.298933857234564E+02
1.108483483483492E-01	3.298884349618577E+02
1.111011011011020E-01	3.298834908940876E+02
1.113538538538547E-01	3.298785538081020E+02
1.116066066066075E-01	3.298088995693277E+02
1.118593593593602E-01	3.298040271683338E+02
1.121121121121130E-01	3.297991626070169E+02
1.123648648648658E-01	3.297943061674276E+02
1.126176176176185E-01	3.297894581301546E+02
1.128703703703713E-01	3.297846187743352E+02
1.131231231231240E-01	3.297797883776668E+02
1.133758758758768E-01	3.297106047583546E+02
1.136286286286295E-01	3.297058430127856E+02
1.138813813813823E-01	3.297010910542790E+02
1.141341341341351E-01	3.296963491549249E+02
1.143868868868878E-01	3.296916175854247E+02
1.146396396396406E-01	3.296868966151016E+02
1.148923923923933E-01	3.296181365157907E+02
1.151451451451461E-01	3.296134874921827E+02
1.153978978978989E-01	3.296088498711791E+02
1.156506506506516E-01	3.296042239167351E+02
1.159034034034044E-01	3.295996098914765E+02
1.161561561561571E-01	3.295950080567093E+02
1.164089089089099E-01	3.295266815098170E+02
1.166616616616626E-01	3.295221548225313E+02
1.169144144144154E-01	3.295176411057142E+02
1.171671671671682E-01	3.295131406155294E+02
1.174199199199209E-01	3.295086536068668E+02
1.176726726726737E-01	3.294407063571624E+02
1.179254254254264E-01	3.294362970982792E+02
1.181781781781792E-01	3.294319020821202E+02
1.184309309309319E-01	3.294275215586115E+02
1.186836836836847E-01	3.294231557764485E+02
1.189364364364375E-01	3.293555944965817E+02
1.191891891891902E-01	3.293513090056602E+02
1.194419419419430E-01	3.293470389991550E+02
1.196946946946957E-01	3.293427847209676E+02
1.199474474474485E-01	3.293385464138111E+02
1.202002002002013E-01	3.293343243192190E+02
1.204529529529540E-01	3.292672220965941E+02
1.207057057057068E-01	3.292630832599466E+02
1.209584584584595E-01	3.292589613579630E+02
1.212112112112123E-01	3.292548566275760E+02
1.214639639639650E-01	3.291880867237593E+02
1.217167167167178E-01	3.291840671931670E+02
1.219694694694706E-01	3.291800655427900E+02
1.222222222222233E-01	3.291760820050828E+02
1.224749749749761E-01	3.291721168113901E+02
1.227277277277288E-01	3.291057520349030E+02
1.229804804804816E-01	3.291018744119290E+02
1.232332332332343E-01	3.290980158252131E+02
1.234859859859871E-01	3.290941765017693E+02
1.237387387387399E-01	3.290903566675379E+02
1.239914914914926E-01	3.290244031328183E+02
1.242442442442454E-01	3.290206731870700E+02
1.244969969969981E-01	3.290169634069355E+02
