# barionic density, energy density per particle 
1.025275275275275E-02	9.558703072973364E+02
1.050550550550551E-02	9.561399676073786E+02
1.075825825825826E-02	9.564055754836215E+02
1.101101101101101E-02	9.566672605919855E+02
1.126376376376376E-02	9.569251443443441E+02
1.151651651651652E-02	9.571793429709591E+02
1.176926926926927E-02	9.574299682281841E+02
1.202202202202202E-02	9.576771248665365E+02
1.227477477477477E-02	9.579209124829788E+02
1.252752752752753E-02	9.581614258735991E+02
1.278028028028028E-02	9.583987553564846E+02
1.303303303303303E-02	9.586329870671506E+02
1.328578578578579E-02	9.588642032284830E+02
1.353853853853854E-02	9.590924823983814E+02
1.379129129129129E-02	9.593178996986604E+02
1.404404404404404E-02	9.595405270241268E+02
1.429679679679680E-02	9.597604332367739E+02
1.454954954954955E-02	9.599776843443061E+02
1.480230230230230E-02	9.601923436652091E+02
1.505505505505505E-02	9.604044719822832E+02
1.530780780780781E-02	9.606141276845730E+02
1.556056056056056E-02	9.608213668988263E+02
1.581331331331331E-02	9.610262436125992E+02
1.606606606606607E-02	9.612288097878145E+02
1.631881881881882E-02	9.614291154675711E+02
1.657157157157158E-02	9.616272088748857E+02
1.682432432432433E-02	9.618231365057342E+02
1.707707707707708E-02	9.620169432152352E+02
1.732982982982984E-02	9.622086722990957E+02
1.758258258258259E-02	9.623983655693357E+02
1.783533533533535E-02	9.625860634255359E+02
1.808808808808810E-02	9.627718042746573E+02
1.834084084084086E-02	9.629556264480649E+02
1.859359359359361E-02	9.631375666555012E+02
1.884634634634636E-02	9.633176602744138E+02
1.909909909909912E-02	9.634959415664102E+02
1.935185185185187E-02	9.636724437266164E+02
1.960460460460463E-02	9.638471989302418E+02
1.985735735735738E-02	9.640202383764131E+02
2.011011011011014E-02	9.641915923300205E+02
2.036286286286289E-02	9.643612901605393E+02
2.061561561561565E-02	9.645293603795290E+02
2.086836836836840E-02	9.646958306755296E+02
2.112112112112115E-02	9.648607279476004E+02
2.137387387387391E-02	9.650240783366454E+02
2.162662662662666E-02	9.651859072556783E+02
2.187937937937942E-02	9.653462394182131E+02
2.213213213213217E-02	9.655050988651079E+02
2.238488488488493E-02	9.656625089903497E+02
2.263763763763768E-02	9.658184925656328E+02
2.289039039039044E-02	9.659730717634833E+02
2.314314314314319E-02	9.661262681792073E+02
2.339589589589594E-02	9.662781028525114E+02
2.364864864864870E-02	9.664285962868847E+02
2.390140140140145E-02	9.665777684694556E+02
2.415415415415421E-02	9.667256388887344E+02
2.440690690690696E-02	9.668722263639881E+02
2.465965965965972E-02	9.670175490836479E+02
2.491241241241247E-02	9.671616256413600E+02
2.516516516516523E-02	9.673044736999303E+02
2.541791791791798E-02	9.674461105036031E+02
2.567067067067073E-02	9.675865528920383E+02
2.592342342342349E-02	9.677258173135550E+02
2.617617617617624E-02	9.678639198381015E+02
2.642892892892900E-02	9.680008761693319E+02
2.668168168168175E-02	9.681367016563103E+02
2.693443443443451E-02	9.682714113050083E+02
2.718718718718726E-02	9.684050197887929E+02
2.743993993994001E-02	9.685375414589731E+02
2.769269269269277E-02	9.686689903548105E+02
2.794544544544552E-02	9.687993802127268E+02
2.819819819819828E-02	9.689287244759437E+02
2.845095095095103E-02	9.690570363029695E+02
2.870370370370379E-02	9.691843285760837E+02
2.895645645645654E-02	9.693106139098161E+02
2.920920920920930E-02	9.694359046583828E+02
2.946196196196205E-02	9.695602120953655E+02
2.971471471471480E-02	9.696835480324246E+02
2.996746746746756E-02	9.698059249308347E+02
3.022022022022031E-02	9.699273541774563E+02
3.047297297297307E-02	9.700478469340587E+02
3.072572572572582E-02	9.701674141435553E+02
3.097847847847858E-02	9.702860665360682E+02
3.123123123123133E-02	9.704038146348349E+02
3.148398398398408E-02	9.705206687616836E+02
3.173673673673683E-02	9.706366390425674E+02
3.198948948948958E-02	9.707517354128278E+02
3.224224224224233E-02	9.708659662767197E+02
3.249499499499509E-02	9.709793417242726E+02
3.274774774774784E-02	9.710918719495888E+02
3.300050050050059E-02	9.712035661744093E+02
3.325325325325334E-02	9.713144334534883E+02
3.350600600600609E-02	9.714244826787581E+02
3.375875875875884E-02	9.715337225835233E+02
3.401151151151159E-02	9.716421617464756E+02
3.426426426426434E-02	9.717498077626094E+02
3.451701701701709E-02	9.718566680842844E+02
3.476976976976984E-02	9.719627524909959E+02
3.502252252252260E-02	9.720680689802666E+02
3.527527527527535E-02	9.721726254133092E+02
3.552802802802810E-02	9.722764295177606E+02
3.578078078078085E-02	9.723794888915726E+02
3.603353353353360E-02	9.724818098450339E+02
3.628628628628635E-02	9.725833992889444E+02
3.653903903903910E-02	9.726842660292133E+02
3.679179179179185E-02	9.727844171735147E+02
3.704454454454460E-02	9.728838597138333E+02
3.729729729729735E-02	9.729826005295272E+02
3.755005005005010E-02	9.730806452103633E+02
3.780280280280286E-02	9.731779998014973E+02
3.805555555555561E-02	9.732746726397023E+02
3.830830830830836E-02	9.733706701778711E+02
3.856106106106111E-02	9.734659987679795E+02
3.881381381381386E-02	9.735606646479401E+02
3.906656656656661E-02	9.736546708496628E+02
3.931931931931936E-02	9.737480265649925E+02
3.957207207207211E-02	9.738407377647508E+02
3.982482482482486E-02	9.739328103294752E+02
4.007757757757761E-02	9.740242497495318E+02
4.033033033033036E-02	9.741150590113841E+02
4.058308308308312E-02	9.742052467471714E+02
4.083583583583587E-02	9.742948184952932E+02
4.108858858858862E-02	9.743837797130935E+02
4.134134134134137E-02	9.744721338521686E+02
4.159409409409412E-02	9.745598865898423E+02
4.184684684684687E-02	9.746470446902207E+02
4.209959959959962E-02	9.747336133026370E+02
4.235235235235237E-02	9.748195963212876E+02
4.260510510510512E-02	9.749049975073580E+02
4.285785785785787E-02	9.749898242128170E+02
4.311061061061063E-02	9.750740813031651E+02
4.336336336336338E-02	9.751577722412285E+02
4.361611611611613E-02	9.752409006990849E+02
4.386886886886888E-02	9.753234737321338E+02
4.412162162162163E-02	9.754054959439637E+02
4.437437437437438E-02	9.754869695421860E+02
4.462712712712713E-02	9.755678998286468E+02
4.487987987987988E-02	9.756482927292030E+02
4.513263263263263E-02	9.757281524235747E+02
4.538538538538538E-02	9.758074796306817E+02
4.563813813813813E-02	9.758862823581985E+02
4.589089089089089E-02	9.759645647973307E+02
4.614364364364364E-02	9.760423284564413E+02
4.639639639639639E-02	9.761195786267041E+02
4.664914914914914E-02	9.761963207545282E+02
4.690190190190189E-02	9.762725571649254E+02
4.715465465465464E-02	9.763482909543452E+02
4.740740740740739E-02	9.764235284834027E+02
4.766016016016014E-02	9.764982723981784E+02
4.791291291291289E-02	9.765725246212779E+02
4.816566566566564E-02	9.766462919269793E+02
4.841841841841839E-02	9.767195768069049E+02
4.867117117117115E-02	9.767923809885305E+02
4.892392392392390E-02	9.768647111796161E+02
4.917667667667665E-02	9.769365692608541E+02
4.942942942942940E-02	9.770079577034161E+02
4.968218218218215E-02	9.770788826876994E+02
4.993493493493490E-02	9.771493450449678E+02
5.018768768768765E-02	9.772193488913117E+02
5.044044044044040E-02	9.772888994370627E+02
5.069319319319315E-02	9.773579960427397E+02
5.094594594594590E-02	9.774266453348287E+02
5.119869869869866E-02	9.774948500208700E+02
5.145145145145141E-02	9.775626109075934E+02
5.170420420420416E-02	9.776299346415984E+02
5.195695695695691E-02	9.776968211410293E+02
5.220970970970966E-02	9.777632752234870E+02
5.246246246246241E-02	9.778293004519401E+02
5.271521521521516E-02	9.778948970100440E+02
5.296796796796791E-02	9.779600716550551E+02
5.322072072072066E-02	9.780248235959086E+02
5.347347347347341E-02	9.780891584300601E+02
5.372622622622616E-02	9.781530780516447E+02
5.397897897897892E-02	9.782165845378378E+02
5.423173173173167E-02	9.782796829402897E+02
5.448448448448442E-02	9.783423722906955E+02
5.473723723723717E-02	9.784046596730578E+02
5.498998998998992E-02	9.784665435172553E+02
5.524274274274267E-02	9.785280301555782E+02
5.549549549549542E-02	9.785891195772757E+02
5.574824824824817E-02	9.786498160895852E+02
5.600100100100092E-02	9.787101213762212E+02
5.625375375375367E-02	9.787700381559321E+02
5.650650650650643E-02	9.788295693789480E+02
5.675925925925918E-02	9.788887166015364E+02
5.701201201201193E-02	9.789474836229923E+02
5.726476476476468E-02	9.790058712527016E+02
5.751751751751743E-02	9.790638837314392E+02
5.777027027027018E-02	9.791215215274448E+02
5.802302302302293E-02	9.791787889251273E+02
5.827577577577568E-02	9.792356864476130E+02
5.852852852852843E-02	9.792922180344867E+02
5.878128128128118E-02	9.793483846505527E+02
5.903403403403393E-02	9.794041895110191E+02
5.928678678678669E-02	9.794596344001462E+02
5.953953953953944E-02	9.795147214381426E+02
5.979229229229219E-02	9.795694535976844E+02
6.004504504504494E-02	9.796238315418193E+02
6.029779779779769E-02	9.796778597921656E+02
6.055055055055044E-02	9.797315372007106E+02
6.080330330330319E-02	9.797848696567720E+02
6.105605605605594E-02	9.798378554559845E+02
6.130880880880869E-02	9.798904998394988E+02
6.156156156156144E-02	9.799428030208098E+02
6.181431431431419E-02	9.799947674860797E+02
6.206706706706695E-02	9.800463962894428E+02
6.231981981981970E-02	9.800976888364756E+02
6.257257257257245E-02	9.801486503006239E+02
6.282532532532521E-02	9.801992798246937E+02
6.307807807807797E-02	9.802495810296082E+02
6.333083083083073E-02	9.802995560872694E+02
6.358358358358349E-02	9.803492046664952E+02
6.383633633633624E-02	9.803985315141124E+02
6.408908908908900E-02	9.804475364181261E+02
6.434184184184176E-02	9.804962217709369E+02
6.459459459459452E-02	9.805445907845800E+02
6.484734734734728E-02	9.805926423625900E+02
6.510010010010003E-02	9.806403807127928E+02
6.535285285285279E-02	9.806878078163161E+02
6.560560560560555E-02	9.807349225999534E+02
6.585835835835831E-02	9.807817297397241E+02
6.611111111111106E-02	9.808282305873112E+02
6.636386386386382E-02	9.808744245173228E+02
6.661661661661658E-02	9.809203158238707E+02
6.686936936936934E-02	9.809659060754109E+02
6.712212212212210E-02	9.810111942595003E+02
6.737487487487485E-02	9.810561847109346E+02
6.762762762762761E-02	9.811008790088691E+02
6.788038038038037E-02	9.811452767762967E+02
6.813313313313313E-02	9.811893809668205E+02
6.838588588588589E-02	9.812331937301735E+02
6.863863863863864E-02	9.812767158678001E+02
6.889139139139140E-02	9.813199480220702E+02
6.914414414414416E-02	9.813628933569257E+02
6.939689689689692E-02	9.814055533609865E+02
6.964964964964968E-02	9.814479282141498E+02
6.990240240240243E-02	9.814900198751460E+02
7.015515515515519E-02	9.815318306624291E+02
7.040790790790795E-02	9.815733620164162E+02
7.066066066066071E-02	9.816146142310497E+02
7.091341341341346E-02	9.816555891089424E+02
7.116616616616622E-02	9.816962888671446E+02
7.141891891891898E-02	9.817367149001493E+02
7.167167167167174E-02	9.817768683224316E+02
7.192442442442450E-02	9.818167493663001E+02
7.217717717717725E-02	9.818563608619745E+02
7.242992992993001E-02	9.818957041601391E+02
7.268268268268277E-02	9.819347806011026E+02
7.293543543543553E-02	9.819735913083945E+02
7.318818818818829E-02	9.820121365915829E+02
7.344094094094104E-02	9.820504190330428E+02
7.369369369369380E-02	9.820884399317803E+02
7.394644644644656E-02	9.821262005770080E+02
7.419919919919932E-02	9.821637022481009E+02
7.445195195195208E-02	9.822009459800096E+02
7.470470470470483E-02	9.822379323773301E+02
7.495745745745759E-02	9.822746636345735E+02
7.521021021021035E-02	9.823111409927667E+02
7.546296296296311E-02	9.823473656836115E+02
7.571571571571586E-02	9.823833389297678E+02
7.596846846846862E-02	9.824190619448817E+02
7.622122122122138E-02	9.824545359337020E+02
7.647397397397414E-02	9.824897617448297E+02
7.672672672672690E-02	9.825247405167502E+02
7.697947947947965E-02	9.825594738736742E+02
7.723223223223241E-02	9.825939629852422E+02
7.748498498498517E-02	9.826282090126900E+02
7.773773773773793E-02	9.826622131088820E+02
7.799049049049069E-02	9.826959764184978E+02
7.824324324324344E-02	9.827295000780543E+02
7.849599599599620E-02	9.827627852160030E+02
7.874874874874896E-02	9.827958329528791E+02
7.900150150150172E-02	9.828286444012739E+02
7.925425425425447E-02	9.828612206660322E+02
7.950700700700723E-02	9.828935628442802E+02
7.975975975975999E-02	9.829256720254508E+02
8.001251251251275E-02	9.829575492915737E+02
8.026526526526551E-02	9.829891957170610E+02
8.051801801801826E-02	9.830206123690552E+02
8.077077077077102E-02	9.830518003073194E+02
8.102352352352378E-02	9.830827605844224E+02
8.127627627627654E-02	9.831134942457807E+02
8.152902902902930E-02	9.831440023297133E+02
8.178178178178205E-02	9.831742858675650E+02
8.203453453453481E-02	9.832043458837558E+02
8.228728728728757E-02	9.832341833958111E+02
8.254004004004033E-02	9.832637994145075E+02
8.279279279279309E-02	9.832931949438786E+02
8.304554554554584E-02	9.833223709813566E+02
8.329829829829860E-02	9.833513285177632E+02
8.355105105105136E-02	9.833800685374495E+02
8.380380380380412E-02	9.834085920182846E+02
8.405655655655687E-02	9.834368999317735E+02
8.430930930930963E-02	9.834649932431745E+02
8.456206206206239E-02	9.834928729114361E+02
8.481481481481515E-02	9.835205398893414E+02
8.506756756756791E-02	9.835479951235518E+02
8.532032032032066E-02	9.835752392157995E+02
8.557307307307342E-02	9.836022730318596E+02
8.582582582582618E-02	9.836290978720978E+02
8.607857857857894E-02	9.836557146596548E+02
8.633133133133170E-02	9.836821243118551E+02
8.658408408408445E-02	9.837083277402485E+02
8.683683683683721E-02	9.837343258507383E+02
8.708958958958997E-02	9.837601195309840E+02
8.734234234234273E-02	9.837857086841541E+02
8.759509509509548E-02	9.838110951695249E+02
8.784784784784824E-02	9.838362798710599E+02
8.810060060060100E-02	9.838612636672495E+02
8.835335335335376E-02	9.838860474312161E+02
8.860610610610652E-02	9.839106315772206E+02
8.885885885885927E-02	9.839350166366646E+02
8.911161161161203E-02	9.839592042195917E+02
8.936436436436479E-02	9.839831951784327E+02
8.961711711711755E-02	9.840069903605653E+02
8.986986986987031E-02	9.840305896928738E+02
9.012262262262306E-02	9.840539944252824E+02
9.037537537537582E-02	9.840772058622008E+02
9.062812812812858E-02	9.841002248312706E+02
9.088088088088134E-02	9.841230513442122E+02
9.113363363363410E-02	9.841456862803711E+02
9.138638638638685E-02	9.841681311731051E+02
9.163913913913961E-02	9.841903868310804E+02
9.189189189189237E-02	9.842124527012124E+02
9.214464464464513E-02	9.842343305985657E+02
9.239739739739788E-02	9.842560216308598E+02
9.265015015015064E-02	9.842775258601387E+02
9.290290290290340E-02	9.842988437252218E+02
9.315565565565616E-02	9.843199770554203E+02
9.340840840840892E-02	9.843409261516513E+02
9.366116116116167E-02	9.843616908328919E+02
9.391391391391443E-02	9.843822732710701E+02
9.416666666666719E-02	9.844026736386769E+02
9.441941941941995E-02	9.844228918730798E+02
9.467217217217271E-02	9.844429301188383E+02
9.492492492492546E-02	9.844627880617085E+02
9.517767767767822E-02	9.844824664778135E+02
9.543043043043098E-02	9.845019671233902E+02
9.568318318318374E-02	9.845212888475761E+02
9.593593593593649E-02	9.845404339684741E+02
9.618868868868925E-02	9.845594027121169E+02
9.644144144144201E-02	9.845781951180215E+02
9.669419419419477E-02	9.845968133642220E+02
9.694694694694753E-02	9.846152559722638E+02
9.719969969970028E-02	9.846335256978956E+02
9.745245245245304E-02	9.846516218777879E+02
9.770520520520580E-02	9.846695458214690E+02
9.795795795795856E-02	9.846872981284756E+02
9.821071071071132E-02	9.847048790014791E+02
9.846346346346407E-02	9.847222899664428E+02
9.871621621621683E-02	9.847395304531636E+02
9.896896896896959E-02	9.847566025829100E+02
9.922172172172235E-02	9.847735053413853E+02
9.947447447447511E-02	9.847902411191175E+02
9.972722722722786E-02	9.848068087814731E+02
9.997997997998062E-02	9.848232106671944E+02
1.002327327327334E-01	9.848394458400825E+02
1.004854854854861E-01	9.848555162710071E+02
1.007382382382389E-01	9.848714215360222E+02
1.009909909909917E-01	9.848871629269823E+02
1.012437437437444E-01	9.849027408411766E+02
1.014964964964972E-01	9.849181555849447E+02
1.017492492492499E-01	9.849334086811739E+02
1.020020020020027E-01	9.849484991489330E+02
1.022547547547554E-01	9.849634294149232E+02
1.025075075075082E-01	9.849781984779497E+02
1.027602602602610E-01	9.849928079399015E+02
1.030130130130137E-01	9.850072583867480E+02
1.032657657657665E-01	9.850215493639806E+02
1.035185185185192E-01	9.850356829002010E+02
1.037712712712720E-01	9.850496584380526E+02
1.040240240240247E-01	9.850634768870073E+02
1.042767767767775E-01	9.850771395134763E+02
1.045295295295303E-01	9.850906455019367E+02
1.047822822822830E-01	9.851039963957602E+02
1.050350350350358E-01	9.851171930659457E+02
1.052877877877885E-01	9.851302347944728E+02
1.055405405405413E-01	9.851431230448603E+02
1.057932932932941E-01	9.851558586512745E+02
1.060460460460468E-01	9.851684413409637E+02
1.062987987987996E-01	9.851808717996875E+02
1.065515515515523E-01	9.851931511753805E+02
1.068043043043051E-01	9.852052799682466E+02
1.070570570570578E-01	9.852172574410253E+02
1.073098098098106E-01	9.852290853610541E+02
1.075625625625634E-01	9.852407642353118E+02
1.078153153153161E-01	9.852522945566177E+02
1.080680680680689E-01	9.852636757525289E+02
1.083208208208216E-01	9.852749094090341E+02
1.085735735735744E-01	9.852859960264566E+02
1.088263263263271E-01	9.852969360904608E+02
1.090790790790799E-01	9.853077298046455E+02
1.093318318318327E-01	9.853183773472607E+02
1.095845845845854E-01	9.853288798279169E+02
1.098373373373382E-01	9.853392377253964E+02
1.100900900900909E-01	9.853494515167459E+02
1.103428428428437E-01	9.853595216774435E+02
1.105955955955965E-01	9.853694484131078E+02
1.108483483483492E-01	9.853792321152148E+02
1.111011011011020E-01	9.853888736463933E+02
1.113538538538547E-01	9.853983734755030E+02
1.116066066066075E-01	9.854077320698746E+02
1.118593593593602E-01	9.854169498953453E+02
1.121121121121130E-01	9.854260274161738E+02
1.123648648648658E-01	9.854349650951634E+02
1.126176176176185E-01	9.854437633936120E+02
1.128703703703713E-01	9.854524227713055E+02
1.131231231231240E-01	9.854609435213944E+02
1.133758758758768E-01	9.854693262131507E+02
1.136286286286295E-01	9.854775713946666E+02
1.138813813813823E-01	9.854856795196451E+02
1.141341341341351E-01	9.854936510403747E+02
1.143868868868878E-01	9.855014864077366E+02
1.146396396396406E-01	9.855091860711892E+02
1.148923923923933E-01	9.855167504788070E+02
1.151451451451461E-01	9.855241800773139E+02
1.153978978978989E-01	9.855314753120325E+02
1.156506506506516E-01	9.855386366269204E+02
1.159034034034044E-01	9.855456644646275E+02
1.161561561561571E-01	9.855525592664500E+02
1.164089089089099E-01	9.855593214415419E+02
1.166616616616626E-01	9.855659512113352E+02
1.169144144144154E-01	9.855724492248335E+02
1.171671671671682E-01	9.855788159183317E+02
1.174199199199209E-01	9.855850517268481E+02
1.176726726726737E-01	9.855911570841224E+02
1.179254254254264E-01	9.855971324226213E+02
1.181781781781792E-01	9.856029781735657E+02
1.184309309309319E-01	9.856086947669270E+02
1.186836836836847E-01	9.856142826314219E+02
1.189364364364375E-01	9.856197418397594E+02
1.191891891891902E-01	9.856250728835437E+02
1.194419419419430E-01	9.856302764435065E+02
1.196946946946957E-01	9.856353529437671E+02
1.199474474474485E-01	9.856403028072516E+02
1.202002002002013E-01	9.856451264557143E+02
1.204529529529540E-01	9.856498235768794E+02
1.207057057057068E-01	9.856543951991797E+02
1.209584584584595E-01	9.856588418323062E+02
1.212112112112123E-01	9.856631638936334E+02
1.214639639639650E-01	9.856673613851164E+02
1.217167167167178E-01	9.856714345527299E+02
1.219694694694706E-01	9.856753843623490E+02
1.222222222222233E-01	9.856792112270095E+02
1.224749749749761E-01	9.856829148543542E+02
1.227277277277288E-01	9.856864959294949E+02
1.229804804804816E-01	9.856899552618178E+02
1.232332332332343E-01	9.856932929111516E+02
1.234859859859871E-01	9.856965087458589E+02
1.237387387387399E-01	9.856996040315040E+02
1.239914914914926E-01	9.857025788351705E+02
1.242442442442454E-01	9.857054329007914E+02
1.244969969969981E-01	9.857081676029187E+02
