# barionic density, mass
1.025275275275275E-02	3.046195308303834E+02
1.050550550550551E-02	3.044516843185426E+02
1.075825825825826E-02	3.042838378067016E+02
1.101101101101101E-02	3.041159912948609E+02
1.126376376376376E-02	3.039634035568238E+02
1.151651651651652E-02	3.037955570449830E+02
1.176926926926927E-02	3.036277105331421E+02
1.202202202202202E-02	3.034598640213013E+02
1.227477477477477E-02	3.032920175094605E+02
1.252752752752753E-02	3.031241709976197E+02
1.278028028028028E-02	3.029563244857789E+02
1.303303303303303E-02	3.027884779739380E+02
1.328578578578579E-02	3.026206314620972E+02
1.353853853853854E-02	3.024527849502564E+02
1.379129129129129E-02	3.022849384384156E+02
1.404404404404404E-02	3.021170919265747E+02
1.429679679679680E-02	3.019492454147339E+02
1.454954954954955E-02	3.017813989028931E+02
1.480230230230230E-02	3.016135523910523E+02
1.505505505505505E-02	3.014457058792115E+02
1.530780780780781E-02	3.012778593673706E+02
1.556056056056056E-02	3.011100128555298E+02
1.581331331331331E-02	3.009421663436890E+02
1.606606606606607E-02	3.007743198318482E+02
1.631881881881882E-02	3.006064733200074E+02
1.657157157157158E-02	3.004386268081664E+02
1.682432432432433E-02	3.002707802963257E+02
1.707707707707708E-02	3.001029337844849E+02
1.732982982982984E-02	2.999350872726441E+02
1.758258258258259E-02	2.997672407608032E+02
1.783533533533535E-02	2.995993942489624E+02
1.808808808808810E-02	2.994468065109253E+02
1.834084084084086E-02	2.992789599990845E+02
1.859359359359361E-02	2.991111134872436E+02
1.884634634634636E-02	2.989432669754028E+02
1.909909909909912E-02	2.987754204635620E+02
1.935185185185187E-02	2.986075739517212E+02
1.960460460460463E-02	2.984397274398805E+02
1.985735735735738E-02	2.982718809280395E+02
2.011011011011014E-02	2.981040344161987E+02
2.036286286286289E-02	2.979361879043579E+02
2.061561561561565E-02	2.977683413925172E+02
2.086836836836840E-02	2.976004948806763E+02
2.112112112112115E-02	2.974326483688354E+02
2.137387387387391E-02	2.972648018569946E+02
2.162662662662666E-02	2.970969553451539E+02
2.187937937937942E-02	2.969291088333131E+02
2.213213213213217E-02	2.967612623214721E+02
2.238488488488493E-02	2.965934158096313E+02
2.263763763763768E-02	2.964255692977906E+02
2.289039039039044E-02	2.962577227859498E+02
2.314314314314319E-02	2.960898762741089E+02
2.339589589589594E-02	2.959220297622680E+02
2.364864864864870E-02	2.957541832504273E+02
2.390140140140145E-02	2.955863367385865E+02
2.415415415415421E-02	2.954184902267457E+02
2.440690690690696E-02	2.952353849411011E+02
2.465965965965972E-02	2.950675384292603E+02
2.491241241241247E-02	2.948996919174195E+02
2.516516516516523E-02	2.947318454055787E+02
2.541791791791798E-02	2.945639988937378E+02
2.567067067067073E-02	2.943961523818970E+02
2.592342342342349E-02	2.942283058700563E+02
2.617617617617624E-02	2.940604593582154E+02
2.642892892892900E-02	2.938926128463745E+02
2.668168168168175E-02	2.937247663345337E+02
2.693443443443451E-02	2.935569198226930E+02
2.718718718718726E-02	2.933890733108522E+02
2.743993993994001E-02	2.932212267990113E+02
2.769269269269277E-02	2.930533802871704E+02
2.794544544544552E-02	2.928855337753297E+02
2.819819819819828E-02	2.927176872634888E+02
2.845095095095103E-02	2.925498407516479E+02
2.870370370370379E-02	2.923819942398071E+02
2.895645645645654E-02	2.922141477279664E+02
2.920920920920930E-02	2.920463012161256E+02
2.946196196196205E-02	2.918631959304810E+02
2.971471471471480E-02	2.916953494186401E+02
2.996746746746756E-02	2.915275029067993E+02
3.022022022022031E-02	2.913596563949586E+02
3.047297297297307E-02	2.911918098831177E+02
3.072572572572582E-02	2.910239633712769E+02
3.097847847847858E-02	2.908561168594360E+02
3.123123123123133E-02	2.906882703475952E+02
3.148398398398408E-02	2.905204238357544E+02
3.173673673673683E-02	2.903525773239136E+02
3.198948948948958E-02	2.901847308120728E+02
3.224224224224233E-02	2.900016255264283E+02
3.249499499499509E-02	2.898337790145874E+02
3.274774774774784E-02	2.896659325027466E+02
3.300050050050059E-02	2.894980859909058E+02
3.325325325325334E-02	2.893302394790650E+02
3.350600600600609E-02	2.891623929672242E+02
3.375875875875884E-02	2.889945464553833E+02
3.401151151151159E-02	2.888266999435425E+02
3.426426426426434E-02	2.886435946578979E+02
3.451701701701709E-02	2.884757481460571E+02
3.476976976976984E-02	2.883079016342164E+02
3.502252252252260E-02	2.881400551223755E+02
3.527527527527535E-02	2.879722086105346E+02
3.552802802802810E-02	2.878043620986938E+02
3.578078078078085E-02	2.876365155868531E+02
3.603353353353360E-02	2.874534103012086E+02
3.628628628628635E-02	2.872855637893676E+02
3.653903903903910E-02	2.871177172775268E+02
3.679179179179185E-02	2.869498707656860E+02
3.704454454454460E-02	2.867820242538453E+02
3.729729729729735E-02	2.866141777420044E+02
3.755005005005010E-02	2.864310724563599E+02
3.780280280280286E-02	2.862632259445190E+02
3.805555555555561E-02	2.860953794326782E+02
3.830830830830836E-02	2.859275329208374E+02
3.856106106106111E-02	2.857596864089966E+02
3.881381381381386E-02	2.855765811233521E+02
3.906656656656661E-02	2.854087346115112E+02
3.931931931931936E-02	2.852408880996704E+02
3.957207207207211E-02	2.850730415878296E+02
3.982482482482486E-02	2.849051950759888E+02
4.007757757757761E-02	2.847220897903443E+02
4.033033033033036E-02	2.845542432785035E+02
4.058308308308312E-02	2.843863967666626E+02
4.083583583583587E-02	2.842185502548218E+02
4.108858858858862E-02	2.840507037429810E+02
4.134134134134137E-02	2.838675984573365E+02
4.159409409409412E-02	2.836997519454957E+02
4.184684684684687E-02	2.835319054336547E+02
4.209959959959962E-02	2.833640589218140E+02
4.235235235235237E-02	2.831809536361695E+02
4.260510510510512E-02	2.830131071243287E+02
4.285785785785787E-02	2.828452606124878E+02
4.311061061061063E-02	2.826774141006470E+02
4.336336336336338E-02	2.824943088150025E+02
4.361611611611613E-02	2.823264623031617E+02
4.386886886886888E-02	2.821586157913208E+02
4.412162162162163E-02	2.819907692794800E+02
4.437437437437438E-02	2.818076639938355E+02
4.462712712712713E-02	2.816398174819947E+02
4.487987987987988E-02	2.814719709701538E+02
4.513263263263263E-02	2.812888656845093E+02
4.538538538538538E-02	2.811210191726685E+02
4.563813813813813E-02	2.809531726608276E+02
4.589089089089089E-02	2.807853261489868E+02
4.614364364364364E-02	2.806022208633423E+02
4.639639639639639E-02	2.804343743515016E+02
4.664914914914914E-02	2.802665278396606E+02
4.690190190190189E-02	2.800834225540161E+02
4.715465465465464E-02	2.799155760421753E+02
4.740740740740739E-02	2.797477295303345E+02
4.766016016016014E-02	2.795646242446900E+02
4.791291291291289E-02	2.793967777328492E+02
4.816566566566564E-02	2.792289312210083E+02
4.841841841841839E-02	2.790458259353637E+02
4.867117117117115E-02	2.788779794235229E+02
4.892392392392390E-02	2.787101329116821E+02
4.917667667667665E-02	2.785270276260376E+02
4.942942942942940E-02	2.783591811141968E+02
4.968218218218215E-02	2.781913346023559E+02
4.993493493493490E-02	2.780082293167114E+02
5.018768768768765E-02	2.778403828048706E+02
5.044044044044040E-02	2.776725362930298E+02
5.069319319319315E-02	2.774894310073852E+02
5.094594594594590E-02	2.773215844955445E+02
5.119869869869866E-02	2.771384792098999E+02
5.145145145145141E-02	2.769706326980590E+02
5.170420420420416E-02	2.768027861862182E+02
5.195695695695691E-02	2.766196809005737E+02
5.220970970970966E-02	2.764518343887329E+02
5.246246246246241E-02	2.762687291030883E+02
5.271521521521516E-02	2.761008825912476E+02
5.296796796796791E-02	2.759330360794067E+02
5.322072072072066E-02	2.757499307937622E+02
5.347347347347341E-02	2.755820842819213E+02
5.372622622622616E-02	2.753989789962768E+02
5.397897897897892E-02	2.752311324844360E+02
5.423173173173167E-02	2.750480271987915E+02
5.448448448448442E-02	2.748801806869507E+02
5.473723723723717E-02	2.747123341751098E+02
5.498998998998992E-02	2.745292288894653E+02
5.524274274274267E-02	2.743613823776245E+02
5.549549549549542E-02	2.741782770919800E+02
5.574824824824817E-02	2.740104305801391E+02
5.600100100100092E-02	2.738273252944946E+02
5.625375375375367E-02	2.736594787826539E+02
5.650650650650643E-02	2.734763734970093E+02
5.675925925925918E-02	2.733085269851684E+02
5.701201201201193E-02	2.731254216995239E+02
5.726476476476468E-02	2.729575751876831E+02
5.751751751751743E-02	2.727744699020386E+02
5.777027027027018E-02	2.726066233901977E+02
5.802302302302293E-02	2.724235181045532E+02
5.827577577577568E-02	2.722556715927125E+02
5.852852852852843E-02	2.720725663070680E+02
5.878128128128118E-02	2.719047197952270E+02
5.903403403403393E-02	2.717216145095825E+02
5.928678678678669E-02	2.715537679977417E+02
5.953953953953944E-02	2.713706627120972E+02
5.979229229229219E-02	2.712028162002564E+02
6.004504504504494E-02	2.710197109146118E+02
6.029779779779769E-02	2.708518644027711E+02
6.055055055055044E-02	2.706687591171266E+02
6.080330330330319E-02	2.704856538314820E+02
6.105605605605594E-02	2.703178073196411E+02
6.130880880880869E-02	2.701347020339966E+02
6.156156156156144E-02	2.699668555221558E+02
6.181431431431419E-02	2.697837502365113E+02
6.206706706706695E-02	2.696159037246704E+02
6.231981981981970E-02	2.694327984390259E+02
6.257257257257245E-02	2.692496931533814E+02
6.282532532532521E-02	2.690818466415406E+02
6.307807807807797E-02	2.688987413558960E+02
6.333083083083073E-02	2.687308948440552E+02
6.358358358358349E-02	2.685477895584106E+02
6.383633633633624E-02	2.683646842727661E+02
6.408908908908900E-02	2.681968377609253E+02
6.434184184184176E-02	2.680137324752808E+02
6.459459459459452E-02	2.678306271896363E+02
6.484734734734728E-02	2.676627806777954E+02
6.510010010010003E-02	2.674796753921509E+02
6.535285285285279E-02	2.673118288803100E+02
6.560560560560555E-02	2.671287235946655E+02
6.585835835835831E-02	2.669456183090210E+02
6.611111111111106E-02	2.667777717971802E+02
6.636386386386382E-02	2.665946665115356E+02
6.661661661661658E-02	2.664115612258911E+02
6.686936936936934E-02	2.662437147140503E+02
6.712212212212210E-02	2.660606094284058E+02
6.737487487487485E-02	2.658775041427613E+02
6.762762762762761E-02	2.656943988571167E+02
6.788038038038037E-02	2.655265523452758E+02
6.813313313313313E-02	2.653434470596313E+02
6.838588588588589E-02	2.651603417739867E+02
6.863863863863864E-02	2.649924952621460E+02
6.889139139139140E-02	2.648093899765015E+02
6.914414414414416E-02	2.646262846908569E+02
6.939689689689692E-02	2.644431794052124E+02
6.964964964964968E-02	2.642753328933716E+02
6.990240240240243E-02	2.640922276077271E+02
7.015515515515519E-02	2.639091223220825E+02
7.040790790790795E-02	2.637260170364380E+02
7.066066066066071E-02	2.635581705245971E+02
7.091341341341346E-02	2.633750652389526E+02
7.116616616616622E-02	2.631919599533081E+02
7.141891891891898E-02	2.630088546676635E+02
7.167167167167174E-02	2.628410081558227E+02
7.192442442442450E-02	2.626579028701782E+02
7.217717717717725E-02	2.624747975845337E+02
7.242992992993001E-02	2.622916922988891E+02
7.268268268268277E-02	2.621085870132446E+02
7.293543543543553E-02	2.619407405014039E+02
7.318818818818829E-02	2.617576352157593E+02
7.344094094094104E-02	2.615745299301147E+02
7.369369369369380E-02	2.613914246444702E+02
7.394644644644656E-02	2.612083193588257E+02
7.419919919919932E-02	2.610252140731811E+02
7.445195195195208E-02	2.608573675613403E+02
7.470470470470483E-02	2.606742622756958E+02
7.495745745745759E-02	2.604911569900513E+02
7.521021021021035E-02	2.603080517044068E+02
7.546296296296311E-02	2.601249464187622E+02
7.571571571571586E-02	2.599418411331177E+02
7.596846846846862E-02	2.597587358474732E+02
7.622122122122138E-02	2.595756305618287E+02
7.647397397397414E-02	2.594077840499878E+02
7.672672672672690E-02	2.592246787643433E+02
7.697947947947965E-02	2.590415734786988E+02
7.723223223223241E-02	2.588584681930543E+02
7.748498498498517E-02	2.586753629074096E+02
7.773773773773793E-02	2.584922576217651E+02
7.799049049049069E-02	2.583091523361206E+02
7.824324324324344E-02	2.581260470504761E+02
7.849599599599620E-02	2.579429417648315E+02
7.874874874874896E-02	2.577598364791870E+02
7.900150150150172E-02	2.575767311935425E+02
7.925425425425447E-02	2.573936259078979E+02
7.950700700700723E-02	2.572105206222534E+02
7.975975975975999E-02	2.570274153366089E+02
8.001251251251275E-02	2.568443100509644E+02
8.026526526526551E-02	2.566612047653198E+02
8.051801801801826E-02	2.564780994796753E+02
8.077077077077102E-02	2.562949941940308E+02
8.102352352352378E-02	2.561118889083863E+02
8.127627627627654E-02	2.559287836227417E+02
8.152902902902930E-02	2.557456783370972E+02
8.178178178178205E-02	2.555625730514526E+02
8.203453453453481E-02	2.553794677658081E+02
8.228728728728757E-02	2.551963624801635E+02
8.254004004004033E-02	2.550132571945190E+02
8.279279279279309E-02	2.548301519088745E+02
8.304554554554584E-02	2.546470466232300E+02
8.329829829829860E-02	2.544639413375854E+02
8.355105105105136E-02	2.542808360519409E+02
8.380380380380412E-02	2.540977307662964E+02
8.405655655655687E-02	2.539146254806519E+02
8.430930930930963E-02	2.537315201950073E+02
8.456206206206239E-02	2.535484149093628E+02
8.481481481481515E-02	2.533653096237182E+02
8.506756756756791E-02	2.531822043380737E+02
8.532032032032066E-02	2.529838402786255E+02
8.557307307307342E-02	2.528007349929809E+02
8.582582582582618E-02	2.526176297073364E+02
8.607857857857894E-02	2.524345244216919E+02
8.633133133133170E-02	2.522514191360474E+02
8.658408408408445E-02	2.520683138504028E+02
8.683683683683721E-02	2.518852085647583E+02
8.708958958958997E-02	2.516868445053100E+02
8.734234234234273E-02	2.515037392196655E+02
8.759509509509548E-02	2.513206339340210E+02
8.784784784784824E-02	2.511375286483765E+02
8.810060060060100E-02	2.509544233627319E+02
8.835335335335376E-02	2.507713180770874E+02
8.860610610610652E-02	2.505729540176392E+02
8.885885885885927E-02	2.503898487319946E+02
8.911161161161203E-02	2.502067434463501E+02
8.936436436436479E-02	2.500236381607056E+02
8.961711711711755E-02	2.498405328750610E+02
8.986986986987031E-02	2.496421688156128E+02
9.012262262262306E-02	2.494590635299682E+02
9.037537537537582E-02	2.492759582443237E+02
9.062812812812858E-02	2.490928529586791E+02
9.088088088088134E-02	2.488944888992310E+02
9.113363363363410E-02	2.487113836135864E+02
9.138638638638685E-02	2.485282783279419E+02
9.163913913913961E-02	2.483451730422973E+02
9.189189189189237E-02	2.481468089828491E+02
9.214464464464513E-02	2.479637036972046E+02
9.239739739739788E-02	2.477805984115600E+02
9.265015015015064E-02	2.475822343521118E+02
9.290290290290340E-02	2.473991290664673E+02
9.315565565565616E-02	2.472160237808228E+02
9.340840840840892E-02	2.470176597213745E+02
9.366116116116167E-02	2.468345544357300E+02
9.391391391391443E-02	2.466514491500855E+02
9.416666666666719E-02	2.464530850906372E+02
9.441941941941995E-02	2.462699798049927E+02
9.467217217217271E-02	2.460868745193482E+02
9.492492492492546E-02	2.458885104598999E+02
9.517767767767822E-02	2.457054051742554E+02
9.543043043043098E-02	2.455222998886108E+02
9.568318318318374E-02	2.453239358291626E+02
9.593593593593649E-02	2.451408305435181E+02
9.618868868868925E-02	2.449424664840698E+02
9.644144144144201E-02	2.447593611984253E+02
9.669419419419477E-02	2.445762559127807E+02
9.694694694694753E-02	2.443778918533325E+02
9.719969969970028E-02	2.441947865676880E+02
9.745245245245304E-02	2.439964225082397E+02
9.770520520520580E-02	2.438133172225952E+02
9.795795795795856E-02	2.436149531631469E+02
9.821071071071132E-02	2.434318478775024E+02
9.846346346346407E-02	2.432334838180541E+02
9.871621621621683E-02	2.430503785324096E+02
9.896896896896959E-02	2.428520144729614E+02
9.922172172172235E-02	2.426689091873169E+02
9.947447447447511E-02	2.424705451278686E+02
9.972722722722786E-02	2.422874398422241E+02
9.997997997998062E-02	2.420890757827759E+02
1.002327327327334E-01	2.419059704971314E+02
1.004854854854861E-01	2.417076064376831E+02
1.007382382382389E-01	2.415245011520386E+02
1.009909909909917E-01	2.413261370925903E+02
1.012437437437444E-01	2.411430318069458E+02
1.014964964964972E-01	2.409446677474975E+02
1.017492492492499E-01	2.407615624618530E+02
1.020020020020027E-01	2.405631984024048E+02
1.022547547547554E-01	2.403648343429566E+02
1.025075075075082E-01	2.401817290573120E+02
1.027602602602610E-01	2.399833649978638E+02
1.030130130130137E-01	2.398002597122193E+02
1.032657657657665E-01	2.396018956527710E+02
1.035185185185192E-01	2.394035315933228E+02
1.037712712712720E-01	2.392204263076782E+02
1.040240240240247E-01	2.390220622482299E+02
1.042767767767775E-01	2.388236981887817E+02
1.045295295295303E-01	2.386405929031372E+02
1.047822822822830E-01	2.384422288436890E+02
1.050350350350358E-01	2.382438647842407E+02
1.052877877877885E-01	2.380607594985962E+02
1.055405405405413E-01	2.378623954391479E+02
1.057932932932941E-01	2.376640313796997E+02
1.060460460460468E-01	2.374809260940552E+02
1.062987987987996E-01	2.372825620346069E+02
1.065515515515523E-01	2.370841979751587E+02
1.068043043043051E-01	2.368858339157104E+02
1.070570570570578E-01	2.367027286300659E+02
1.073098098098106E-01	2.365043645706177E+02
1.075625625625634E-01	2.363060005111694E+02
1.078153153153161E-01	2.361076364517212E+02
1.080680680680689E-01	2.359245311660766E+02
1.083208208208216E-01	2.357261671066284E+02
1.085735735735744E-01	2.355278030471802E+02
1.088263263263271E-01	2.353294389877319E+02
1.090790790790799E-01	2.351463337020874E+02
1.093318318318327E-01	2.349479696426392E+02
1.095845845845854E-01	2.347496055831909E+02
1.098373373373382E-01	2.345512415237427E+02
1.100900900900909E-01	2.343528774642944E+02
1.103428428428437E-01	2.341545134048462E+02
1.105955955955965E-01	2.339714081192017E+02
1.108483483483492E-01	2.337730440597534E+02
1.111011011011020E-01	2.335746800003052E+02
1.113538538538547E-01	2.333763159408569E+02
1.116066066066075E-01	2.331779518814087E+02
1.118593593593602E-01	2.329795878219604E+02
1.121121121121130E-01	2.327812237625122E+02
1.123648648648658E-01	2.325828597030639E+02
1.126176176176185E-01	2.323844956436157E+02
1.128703703703713E-01	2.321861315841675E+02
1.131231231231240E-01	2.320030262985229E+02
1.133758758758768E-01	2.318046622390747E+02
1.136286286286295E-01	2.316062981796264E+02
1.138813813813823E-01	2.314079341201783E+02
1.141341341341351E-01	2.312095700607300E+02
1.143868868868878E-01	2.310112060012818E+02
1.146396396396406E-01	2.308128419418335E+02
1.148923923923933E-01	2.306144778823853E+02
1.151451451451461E-01	2.304161138229370E+02
1.153978978978989E-01	2.302177497634888E+02
1.156506506506516E-01	2.300193857040405E+02
1.159034034034044E-01	2.298210216445923E+02
1.161561561561571E-01	2.296226575851441E+02
1.164089089089099E-01	2.294090347518921E+02
1.166616616616626E-01	2.292106706924438E+02
1.169144144144154E-01	2.290123066329956E+02
1.171671671671682E-01	2.288139425735474E+02
1.174199199199209E-01	2.286155785140991E+02
1.176726726726737E-01	2.284172144546509E+02
1.179254254254264E-01	2.282188503952026E+02
1.181781781781792E-01	2.280204863357544E+02
1.184309309309319E-01	2.278221222763061E+02
1.186836836836847E-01	2.276237582168579E+02
1.189364364364375E-01	2.274101353836060E+02
1.191891891891902E-01	2.272117713241577E+02
1.194419419419430E-01	2.270134072647095E+02
1.196946946946957E-01	2.268150432052612E+02
1.199474474474485E-01	2.266166791458130E+02
1.202002002002013E-01	2.264183150863647E+02
1.204529529529540E-01	2.262046922531128E+02
1.207057057057068E-01	2.260063281936646E+02
1.209584584584595E-01	2.258079641342163E+02
1.212112112112123E-01	2.256096000747681E+02
1.214639639639650E-01	2.253959772415161E+02
1.217167167167178E-01	2.251976131820679E+02
1.219694694694706E-01	2.249992491226196E+02
1.222222222222233E-01	2.248008850631714E+02
1.224749749749761E-01	2.245872622299194E+02
1.227277277277288E-01	2.243888981704712E+02
1.229804804804816E-01	2.241905341110229E+02
1.232332332332343E-01	2.239769112777710E+02
1.234859859859871E-01	2.237785472183228E+02
1.237387387387399E-01	2.235801831588745E+02
1.239914914914926E-01	2.233665603256225E+02
1.242442442442454E-01	2.231681962661743E+02
1.244969969969981E-01	2.229698322067260E+02
