# barionic density (fm^{-3}), neutron chemical potential (MeV)
1.000000000000000E-03	9.393562948202496E+02
1.666555518506169E-03	9.392776938945041E+02
2.333111037012337E-03	9.391387347570226E+02
2.999666555518506E-03	9.389637439060003E+02
3.666222074024675E-03	9.387644535111419E+02
4.332777592530843E-03	9.385476479514840E+02
4.999333111037012E-03	9.383176901768556E+02
5.665888629543181E-03	9.380775917897059E+02
6.332444148049349E-03	9.378295389194697E+02
6.998999666555518E-03	9.375751804247172E+02
7.665555185061687E-03	9.373157972893695E+02
8.332110703567855E-03	9.370524087907509E+02
8.998666222074025E-03	9.367858417127773E+02
9.665221740580194E-03	9.365167780630494E+02
1.033177725908636E-02	9.362457879687372E+02
1.099833277759253E-02	9.359733538009158E+02
1.166488829609870E-02	9.356998877350876E+02
1.233144381460487E-02	9.354257455256651E+02
1.299799933311104E-02	9.351512361962192E+02
1.366455485161721E-02	9.348766300571099E+02
1.433111037012338E-02	9.346021654665103E+02
1.499766588862955E-02	9.343280533685784E+02
1.566422140713572E-02	9.340544813797358E+02
1.633077692564189E-02	9.337816173823581E+02
1.699733244414806E-02	9.335096120115611E+02
1.766388796265422E-02	9.332386009355749E+02
1.833044348116039E-02	9.329687068500297E+02
1.899699899966656E-02	9.327000408269301E+02
1.966355451817273E-02	9.324327039370148E+02
2.033011003667889E-02	9.321667884129475E+02
2.099666555518506E-02	9.319023783889149E+02
2.166322107369123E-02	9.316395507617269E+02
2.232977659219740E-02	9.313783762813290E+02
2.299633211070357E-02	9.311189197697880E+02
2.366288762920973E-02	9.308612409475053E+02
2.432944314771590E-02	9.306053949316041E+02
2.499599866622207E-02	9.303514323313058E+02
2.566255418472824E-02	9.300994001522364E+02
2.632910970323440E-02	9.298493417112381E+02
2.699566522174057E-02	9.296012971151017E+02
2.766222074024674E-02	9.293553034486118E+02
2.832877625875291E-02	9.291113951914201E+02
2.899533177725908E-02	9.288696041807673E+02
2.966188729576524E-02	9.286299601527634E+02
3.032844281427141E-02	9.283924904924014E+02
3.099499833277758E-02	9.281572206526523E+02
3.166155385128375E-02	9.279241743010069E+02
3.232810936978991E-02	9.276933734525876E+02
3.299466488829608E-02	9.274648384415881E+02
3.366122040680225E-02	9.272385881175742E+02
3.432777592530842E-02	9.270146399893439E+02
3.499433144381459E-02	9.267930103173953E+02
3.566088696232075E-02	9.265737140919326E+02
3.632744248082692E-02	9.263567652390692E+02
3.699399799933309E-02	9.261421765643981E+02
3.766055351783926E-02	9.259299599045644E+02
3.832710903634542E-02	9.257201262309065E+02
3.899366455485159E-02	9.255126854925350E+02
3.966022007335776E-02	9.253076469671892E+02
4.032677559186393E-02	9.251050190536677E+02
4.099333111037010E-02	9.249048094447148E+02
4.165988662887626E-02	9.247070251686878E+02
4.232644214738243E-02	9.245116725431972E+02
4.299299766588860E-02	9.243187572964564E+02
4.365955318439477E-02	9.241282845158854E+02
4.432610870290093E-02	9.239402588922621E+02
4.499266422140710E-02	9.237546843238239E+02
4.565921973991327E-02	9.235715644966070E+02
4.632577525841944E-02	9.233909023575474E+02
4.699233077692561E-02	9.232127006061303E+02
4.765888629543177E-02	9.230369613771680E+02
4.832544181393794E-02	9.228636864320183E+02
4.899199733244411E-02	9.226928771785343E+02
4.965855285095028E-02	9.225245346050194E+02
5.032510836945644E-02	9.223586593404315E+02
5.099166388796261E-02	9.221952517134469E+02
5.165821940646878E-02	9.220343116834589E+02
5.232477492497495E-02	9.218758389401868E+02
5.299133044348112E-02	9.217198328753366E+02
5.365788596198728E-02	9.215662925113052E+02
5.432444148049345E-02	9.214152167252963E+02
5.499099699899962E-02	9.212666040496704E+02
5.565755251750579E-02	9.211204527678608E+02
5.632410803601196E-02	9.209767609673052E+02
5.699066355451812E-02	9.208355264650691E+02
5.765721907302429E-02	9.206967469019447E+02
5.832377459153046E-02	9.205604196671483E+02
5.899033011003663E-02	9.204265419492615E+02
5.965688562854279E-02	9.202951107444911E+02
6.032344114704896E-02	9.201661229066810E+02
6.098999666555513E-02	9.200395750283379E+02
6.165655218406130E-02	9.199154635742728E+02
6.232310770256747E-02	9.197937848462064E+02
6.298966322107363E-02	9.196745349472085E+02
6.365621873957980E-02	9.195577099141192E+02
6.432277425808597E-02	9.194433055131303E+02
6.498932977659214E-02	9.193313174557669E+02
6.565588529509830E-02	9.192217412361289E+02
6.632244081360447E-02	9.191145722621652E+02
6.698899633211064E-02	9.190098059025032E+02
6.765555185061681E-02	9.189074371554256E+02
6.832210736912298E-02	9.188074611990163E+02
6.898866288762914E-02	9.187098728081173E+02
6.965521840613531E-02	9.186146669037382E+02
7.032177392464148E-02	9.185218380540091E+02
7.098832944314765E-02	9.184313809389838E+02
7.165488496165381E-02	9.183432899773055E+02
7.232144048015998E-02	9.182575595810617E+02
7.298799599866615E-02	9.181741840335551E+02
7.365455151717232E-02	9.180931574926782E+02
7.432110703567849E-02	9.180144740776913E+02
7.498766255418465E-02	9.179381278303923E+02
7.565421807269082E-02	9.178641125928243E+02
7.632077359119699E-02	9.177924223441073E+02
7.698732910970316E-02	9.177230507022581E+02
7.765388462820932E-02	9.176559914693308E+02
7.832044014671549E-02	9.175912382583869E+02
7.898699566522166E-02	9.175287845378323E+02
7.965355118372783E-02	9.174686238004658E+02
8.032010670223400E-02	9.174107494823309E+02
8.098666222074016E-02	9.173551549232993E+02
8.165321773924633E-02	9.173018333692772E+02
8.231977325775250E-02	9.172507780574392E+02
8.298632877625867E-02	9.172019820935041E+02
8.365288429476483E-02	9.171554385783747E+02
8.431943981327100E-02	9.171111406099010E+02
8.498599533177717E-02	9.170690810771555E+02
8.565255085028334E-02	9.170292529527849E+02
8.631910636878951E-02	9.169916490871831E+02
8.698566188729567E-02	9.169562622931579E+02
8.765221740580184E-02	9.169230853475135E+02
8.831877292430801E-02	9.168921109925694E+02
8.898532844281418E-02	9.168633318549183E+02
8.965188396132034E-02	9.168367405711008E+02
9.031843947982651E-02	9.168123297475919E+02
9.098499499833268E-02	9.167900918795229E+02
9.165155051683885E-02	9.167700195173874E+02
9.231810603534502E-02	9.167521050617463E+02
9.298466155385118E-02	9.167363409298039E+02
9.365121707235735E-02	9.167227194740569E+02
9.431777259086352E-02	9.167112331072224E+02
9.498432810936969E-02	9.167018740560211E+02
9.565088362787585E-02	9.166946345685840E+02
9.631743914638202E-02	9.166895069154498E+02
9.698399466488819E-02	9.166864832671206E+02
9.765055018339436E-02	9.166855557775526E+02
9.831710570190053E-02	9.166867165440656E+02
9.898366122040669E-02	9.166899576906014E+02
9.965021673891286E-02	9.166952712454220E+02
1.003167722574190E-01	9.167026492243351E+02
1.009833277759252E-01	9.167120836726460E+02
1.016498832944314E-01	9.167235665019705E+02
1.023164388129375E-01	9.167370896963164E+02
1.029829943314437E-01	9.167526451489246E+02
1.036495498499499E-01	9.167702247042625E+02
1.043161053684560E-01	9.167898202817088E+02
1.049826608869622E-01	9.168114236716851E+02
1.056492164054684E-01	9.168350266594010E+02
1.063157719239745E-01	9.168606210664951E+02
1.069823274424807E-01	9.168881986291935E+02
1.076488829609869E-01	9.169177510400987E+02
1.083154384794930E-01	9.169492700714128E+02
1.089819939979992E-01	9.169827473716014E+02
1.096485495165054E-01	9.170181745886846E+02
1.103151050350115E-01	9.170555433709387E+02
1.109816605535177E-01	9.170948453675951E+02
1.116482160720239E-01	9.171360721074730E+02
1.123147715905300E-01	9.171792152439433E+02
1.129813271090362E-01	9.172242663114383E+02
1.136478826275424E-01	9.172712168076523E+02
1.143144381460486E-01	9.173200582755055E+02
1.149809936645547E-01	9.173707822225072E+02
1.156475491830609E-01	9.174233801215056E+02
1.163141047015671E-01	9.174778434519411E+02
1.169806602200732E-01	9.175341636194372E+02
1.176472157385794E-01	9.175923320780946E+02
1.183137712570856E-01	9.176523402500495E+02
1.189803267755917E-01	9.177141795261666E+02
1.196468822940979E-01	9.177778412263192E+02
1.203134378126041E-01	9.178433168021918E+02
1.209799933311102E-01	9.179105975548713E+02
1.216465488496164E-01	9.179796747972862E+02
1.223131043681226E-01	9.180505398951061E+02
1.229796598866287E-01	9.181231841059372E+02
1.236462154051349E-01	9.181975987413773E+02
1.243127709236411E-01	9.182737750466458E+02
1.249793264421472E-01	9.183517043220919E+02
1.256458819606534E-01	9.184313778029623E+02
1.263124374791596E-01	9.185127867003621E+02
1.269789929976657E-01	9.185959222822494E+02
1.276455485161719E-01	9.186807757132622E+02
1.283121040346781E-01	9.187673381759618E+02
1.289786595531842E-01	9.188556009114715E+02
1.296452150716904E-01	9.189455550194839E+02
1.303117705901966E-01	9.190371916995849E+02
1.309783261087027E-01	9.191305021314373E+02
1.316448816272089E-01	9.192254773954164E+02
1.323114371457151E-01	9.193221086733815E+02
1.329779926642213E-01	9.194203870092169E+02
1.336445481827274E-01	9.195203035494170E+02
1.343111037012336E-01	9.196218493837246E+02
1.349776592197398E-01	9.197250156256539E+02
1.356442147382459E-01	9.198297932934244E+02
1.363107702567521E-01	9.199361734701716E+02
1.369773257752583E-01	9.200441472247230E+02
1.376438812937644E-01	9.201537056122196E+02
1.383104368122706E-01	9.202648396350072E+02
1.389769923307768E-01	9.203775403228469E+02
1.396435478492829E-01	9.204917987334383E+02
1.403101033677891E-01	9.206076058338716E+02
1.409766588862953E-01	9.207249526601560E+02
1.416432144048014E-01	9.208438301590753E+02
1.423097699233076E-01	9.209642293475067E+02
1.429763254418138E-01	9.210861411940735E+02
1.436428809603199E-01	9.212095566594627E+02
1.443094364788261E-01	9.213344666970794E+02
1.449759919973323E-01	9.214608622932005E+02
1.456425475158384E-01	9.215887343490638E+02
1.463091030343446E-01	9.217180738395842E+02
1.469756585528508E-01	9.218488716954762E+02
1.476422140713569E-01	9.219811188040521E+02
1.483087695898631E-01	9.221148060887542E+02
1.489753251083693E-01	9.222499244703439E+02
1.496418806268754E-01	9.223864648282595E+02
1.503084361453816E-01	9.225244181192921E+02
1.509749916638878E-01	9.226637751816776E+02
1.516415471823939E-01	9.228045269323651E+02
1.523081027009001E-01	9.229466641713873E+02
1.529746582194063E-01	9.230901778572240E+02
1.536412137379125E-01	9.232350588328871E+02
1.543077692564186E-01	9.233812979443863E+02
1.549743247749248E-01	9.235288860414593E+02
1.556408802934310E-01	9.236778139782581E+02
1.563074358119371E-01	9.238280725750380E+02
1.569739913304433E-01	9.239796526970346E+02
1.576405468489495E-01	9.241325451770732E+02
1.583071023674556E-01	9.242867408164559E+02
1.589736578859618E-01	9.244422304636771E+02
1.596402134044680E-01	9.245990048983381E+02
1.603067689229741E-01	9.247570549487846E+02
1.609733244414803E-01	9.249163714538821E+02
1.616398799599865E-01	9.250769451473356E+02
1.623064354784926E-01	9.252387668915861E+02
1.629729909969988E-01	9.254018274456387E+02
1.636395465155050E-01	9.255661175824450E+02
1.643061020340111E-01	9.257316281283811E+02
1.649726575525173E-01	9.258983498092540E+02
1.656392130710235E-01	9.260662734447126E+02
1.663057685895296E-01	9.262353897557333E+02
1.669723241080358E-01	9.264056895587679E+02
1.676388796265420E-01	9.265771635735563E+02
1.683054351450481E-01	9.267498026169642E+02
1.689719906635543E-01	9.269235973726462E+02
1.696385461820605E-01	9.270985386232051E+02
1.703051017005666E-01	9.272746170970778E+02
1.709716572190728E-01	9.274518235464857E+02
1.716382127375790E-01	9.276301487483147E+02
1.723047682560852E-01	9.278095833900270E+02
1.729713237745913E-01	9.279901182242170E+02
1.736378792930975E-01	9.281717439545639E+02
1.743044348116037E-01	9.283544513517656E+02
1.749709903301098E-01	9.285382311015201E+02
1.756375458486160E-01	9.287230739204410E+02
1.763041013671222E-01	9.289089705188788E+02
1.769706568856283E-01	9.290959116401402E+02
1.776372124041345E-01	9.292838879853398E+02
1.783037679226407E-01	9.294728902527381E+02
1.789703234411468E-01	9.296629091389032E+02
1.796368789596530E-01	9.298539353778682E+02
1.803034344781592E-01	9.300459596283367E+02
1.809699899966653E-01	9.302389725889284E+02
1.816365455151715E-01	9.304329649613633E+02
1.823031010336777E-01	9.306279274516917E+02
1.829696565521838E-01	9.308238506959374E+02
1.836362120706900E-01	9.310207254505353E+02
1.843027675891962E-01	9.312185423666953E+02
1.849693231077023E-01	9.314172920676131E+02
1.856358786262085E-01	9.316169653382572E+02
1.863024341447147E-01	9.318175527873516E+02
1.869689896632208E-01	9.320190450751411E+02
1.876355451817270E-01	9.322214329145795E+02
1.883021007002332E-01	9.324247069224323E+02
1.889686562187393E-01	9.326288578461247E+02
1.896352117372455E-01	9.328338762650087E+02
1.903017672557517E-01	9.330397528920041E+02
1.909683227742578E-01	9.332464783502369E+02
1.916348782927640E-01	9.334540433617551E+02
1.923014338112702E-01	9.336624385248215E+02
1.929679893297764E-01	9.338716545024904E+02
1.936345448482825E-01	9.340816819494906E+02
1.943011003667887E-01	9.342925115139540E+02
1.949676558852949E-01	9.345041338763297E+02
1.956342114038010E-01	9.347165396396113E+02
1.963007669223072E-01	9.349297195169254E+02
1.969673224408134E-01	9.351436640734763E+02
1.976338779593195E-01	9.353583639881988E+02
1.983004334778257E-01	9.355738098702178E+02
1.989669889963319E-01	9.357899924088500E+02
1.996335445148380E-01	9.360069022275766E+02
2.003001000333442E-01	9.362245299600843E+02
2.009666555518504E-01	9.364428662522403E+02
2.016332110703565E-01	9.366619016905543E+02
2.022997665888627E-01	9.368816269515374E+02
2.029663221073689E-01	9.371020326565922E+02
2.036328776258750E-01	9.373231094478117E+02
2.042994331443812E-01	9.375448479168668E+02
2.049659886628874E-01	9.377672387172831E+02
2.056325441813935E-01	9.379902724568271E+02
2.062990996998997E-01	9.382139398095970E+02
2.069656552184059E-01	9.384382313358155E+02
2.076322107369120E-01	9.386631377033867E+02
2.082987662554182E-01	9.388886495443276E+02
2.089653217739244E-01	9.391147574212139E+02
2.096318772924305E-01	9.393414520115996E+02
2.102984328109367E-01	9.395687238925850E+02
2.109649883294429E-01	9.397965636889091E+02
2.116315438479490E-01	9.400249620392934E+02
2.122980993664552E-01	9.402539095630829E+02
2.129646548849614E-01	9.404833968632515E+02
2.136312104034676E-01	9.407134145294563E+02
2.142977659219737E-01	9.409439532130930E+02
2.149643214404799E-01	9.411750035221925E+02
2.156308769589861E-01	9.414065560248250E+02
2.162974324774922E-01	9.416386013959509E+02
2.169639879959984E-01	9.418711302052209E+02
2.176305435145046E-01	9.421041330997678E+02
2.182970990330107E-01	9.423376006642909E+02
2.189636545515169E-01	9.425715234962859E+02
2.196302100700231E-01	9.428058922095297E+02
2.202967655885292E-01	9.430406974020575E+02
2.209633211070354E-01	9.432759297310469E+02
2.216298766255416E-01	9.435115797743231E+02
2.222964321440477E-01	9.437476381056431E+02
2.229629876625539E-01	9.439840953694852E+02
2.236295431810601E-01	9.442209421786301E+02
2.242960986995662E-01	9.444581691185471E+02
2.249626542180724E-01	9.446957667870768E+02
2.256292097365786E-01	9.449337257635173E+02
2.262957652550847E-01	9.451720367186374E+02
2.269623207735909E-01	9.454106902431374E+02
2.276288762920971E-01	9.456496768879115E+02
2.282954318106032E-01	9.458889873090880E+02
2.289619873291094E-01	9.461286120625049E+02
2.296285428476156E-01	9.463685417838985E+02
2.302950983661217E-01	9.466087670540769E+02
2.309616538846279E-01	9.468492785089347E+02
2.316282094031341E-01	9.470900667402034E+02
2.322947649216403E-01	9.473311223012704E+02
2.329613204401464E-01	9.475724358516403E+02
2.336278759586526E-01	9.478139979544123E+02
2.342944314771588E-01	9.480557992555623E+02
2.349609869956649E-01	9.482978303169892E+02
2.356275425141711E-01	9.485400817266286E+02
2.362940980326773E-01	9.487825441389793E+02
2.369606535511834E-01	9.490252081095368E+02
2.376272090696896E-01	9.492680642392849E+02
2.382937645881958E-01	9.495111031469862E+02
2.389603201067019E-01	9.497543154419128E+02
2.396268756252081E-01	9.499976916970398E+02
2.402934311437143E-01	9.502412225248004E+02
2.409599866622204E-01	9.504848985503645E+02
2.416265421807266E-01	9.507287103514692E+02
2.422930976992328E-01	9.509726485006644E+02
2.429596532177389E-01	9.512167036411605E+02
2.436262087362451E-01	9.514608663596485E+02
2.442927642547513E-01	9.517051272627980E+02
2.449593197732574E-01	9.519494769270975E+02
2.456258752917636E-01	9.521939059921463E+02
2.462924308102698E-01	9.524384050354179E+02
2.469589863287759E-01	9.526829646493147E+02
2.476255418472821E-01	9.529275754592538E+02
2.482920973657883E-01	9.531722280668637E+02
2.489586528842944E-01	9.534169130439911E+02
2.496252084028006E-01	9.536616210267046E+02
2.502917639213068E-01	9.539063425931623E+02
2.509583194398130E-01	9.541510683747136E+02
2.516248749583192E-01	9.543957889350054E+02
2.522914304768254E-01	9.546404949144160E+02
2.529579859953316E-01	9.548851768936738E+02
2.536245415138378E-01	9.551298254891858E+02
2.542910970323440E-01	9.553744313002476E+02
2.549576525508502E-01	9.556189849226689E+02
2.556242080693564E-01	9.558634769626666E+02
2.562907635878626E-01	9.561078980510224E+02
2.569573191063688E-01	9.563522387600760E+02
2.576238746248750E-01	9.565964897167180E+02
2.582904301433812E-01	9.568406415203847E+02
2.589569856618874E-01	9.570846847917020E+02
2.596235411803935E-01	9.573286101083229E+02
2.602900966988997E-01	9.575724080867586E+02
2.609566522174059E-01	9.578160693514913E+02
2.616232077359121E-01	9.580595845050743E+02
2.622897632544183E-01	9.583029441471440E+02
2.629563187729245E-01	9.585461388938170E+02
2.636228742914307E-01	9.587891593498309E+02
2.642894298099369E-01	9.590319961293130E+02
2.649559853284431E-01	9.592746398453604E+02
2.656225408469493E-01	9.595170811005123E+02
2.662890963654555E-01	9.597593105096302E+02
2.669556518839617E-01	9.600013186918545E+02
2.676222074024679E-01	9.602430962635368E+02
2.682887629209741E-01	9.604846338165282E+02
2.689553184394803E-01	9.607259219756413E+02
2.696218739579865E-01	9.609669513629508E+02
2.702884294764927E-01	9.612077125791315E+02
2.709549849949989E-01	9.614481962479921E+02
2.716215405135051E-01	9.616883929842973E+02
2.722880960320113E-01	9.619282934093745E+02
2.729546515505175E-01	9.621678881369911E+02
2.736212070690237E-01	9.624071677759919E+02
2.742877625875298E-01	9.626461229494635E+02
2.749543181060360E-01	9.628847442845079E+02
2.756208736245422E-01	9.631230223884343E+02
2.762874291430484E-01	9.633609479024799E+02
2.769539846615546E-01	9.635985114204193E+02
2.776205401800608E-01	9.638357035756356E+02
2.782870956985670E-01	9.640725149934408E+02
2.789536512170732E-01	9.643089362908552E+02
2.796202067355794E-01	9.645449580931858E+02
2.802867622540856E-01	9.647805710225448E+02
2.809533177725918E-01	9.650157657034576E+02
2.816198732910980E-01	9.652505327557653E+02
2.822864288096042E-01	9.654848628340876E+02
2.829529843281104E-01	9.657187465222121E+02
2.836195398466166E-01	9.659521744806145E+02
2.842860953651228E-01	9.661851373314172E+02
2.849526508836290E-01	9.664176256936237E+02
2.856192064021352E-01	9.666496301916426E+02
2.862857619206414E-01	9.668811414667066E+02
2.869523174391476E-01	9.671121501625478E+02
2.876188729576538E-01	9.673426468861284E+02
2.882854284761600E-01	9.675726222727255E+02
2.889519839946662E-01	9.678020669681083E+02
2.896185395131723E-01	9.680309716009336E+02
2.902850950316785E-01	9.682593268164474E+02
2.909516505501847E-01	9.684871232295582E+02
2.916182060686909E-01	9.687143514817590E+02
2.922847615871971E-01	9.689410022180568E+02
2.929513171057033E-01	9.691670660697359E+02
2.936178726242095E-01	9.693925336846796E+02
2.942844281427157E-01	9.696173956940204E+02
2.949509836612219E-01	9.698416427408281E+02
2.956175391797281E-01	9.700652654601511E+02
2.962840946982343E-01	9.702882545075097E+02
2.969506502167405E-01	9.705106005129655E+02
2.976172057352467E-01	9.707322941118900E+02
2.982837612537529E-01	9.709533259701035E+02
2.989503167722591E-01	9.711736867239200E+02
2.996168722907653E-01	9.713933670114014E+02
3.002834278092715E-01	9.716123574867013E+02
3.009499833277777E-01	9.718306487924162E+02
3.016165388462839E-01	9.720482315839452E+02
3.022830943647901E-01	9.722650965006283E+02
